1686298912.00,timestamp
-0.00,1686298912.0
-0.00,1686298912.015625
-0.00,1686298912.03125
-0.00,1686298912.046875
-0.00,1686298912.0625
-0.00,1686298912.078125
-0.00,1686298912.09375
-0.00,1686298912.109375
-0.00,1686298912.125
-0.00,1686298912.140625
0.00,1686298912.15625
0.01,1686298912.171875
0.01,1686298912.1875
-0.00,1686298912.203125
-0.03,1686298912.21875
-0.05,1686298912.234375
-0.05,1686298912.25
0.00,1686298912.265625
0.13,1686298912.28125
0.36,1686298912.296875
0.66,1686298912.3125
1.01,1686298912.328125
1.37,1686298912.34375
1.72,1686298912.359375
2.06,1686298912.375
2.40,1686298912.390625
2.79,1686298912.40625
3.24,1686298912.421875
3.80,1686298912.4375
4.42,1686298912.453125
5.06,1686298912.46875
5.66,1686298912.484375
6.20,1686298912.5
6.68,1686298912.515625
7.15,1686298912.53125
7.68,1686298912.546875
8.31,1686298912.5625
9.14,1686298912.578125
10.09,1686298912.59375
11.04,1686298912.609375
11.88,1686298912.625
12.56,1686298912.640625
13.14,1686298912.65625
13.76,1686298912.671875
14.65,1686298912.6875
15.96,1686298912.703125
17.91,1686298912.71875
20.32,1686298912.734375
22.90,1686298912.75
25.38,1686298912.765625
27.58,1686298912.78125
29.57,1686298912.796875
31.68,1686298912.8125
34.32,1686298912.828125
37.81,1686298912.84375
42.54,1686298912.859375
48.15,1686298912.875
54.10,1686298912.890625
59.83,1686298912.90625
64.97,1686298912.921875
69.58,1686298912.9375
74.14,1686298912.953125
79.34,1686298912.96875
85.71,1686298912.984375
93.76,1686298913.0
103.00,1686298913.015625
112.62,1686298913.03125
121.73,1686298913.046875
129.77,1686298913.0625
136.75,1686298913.078125
143.30,1686298913.09375
150.75,1686298913.109375
157.77,1686298913.125
166.64,1686298913.140625
177.95,1686298913.15625
191.79,1686298913.171875
206.97,1686298913.1875
220.57,1686298913.203125
228.25,1686298913.21875
225.36,1686298913.234375
208.53,1686298913.25
176.87,1686298913.265625
132.76,1686298913.28125
80.05,1686298913.296875
23.07,1686298913.3125
-34.94,1686298913.328125
-92.44,1686298913.34375
-149.16,1686298913.359375
-205.23,1686298913.375
-260.37,1686298913.390625
-313.74,1686298913.40625
-363.87,1686298913.421875
-409.83,1686298913.4375
-450.91,1686298913.453125
-486.50,1686298913.46875
-515.74,1686298913.484375
-537.23,1686298913.5
-549.22,1686298913.515625
-549.96,1686298913.53125
-538.35,1686298913.546875
-514.17,1686298913.5625
-478.64,1686298913.578125
-433.87,1686298913.59375
-382.50,1686298913.609375
-327.15,1686298913.625
-270.08,1686298913.640625
-212.96,1686298913.65625
-157.05,1686298913.671875
-103.36,1686298913.6875
-52.78,1686298913.703125
-6.30,1686298913.71875
35.18,1686298913.734375
70.99,1686298913.75
100.84,1686298913.765625
124.90,1686298913.78125
143.69,1686298913.796875
157.96,1686298913.8125
168.42,1686298913.828125
175.66,1686298913.84375
180.05,1686298913.859375
181.83,1686298913.875
181.20,1686298913.890625
178.45,1686298913.90625
173.95,1686298913.921875
168.18,1686298913.9375
161.60,1686298913.953125
154.58,1686298913.96875
147.32,1686298913.984375
139.85,1686298914.0
132.13,1686298914.015625
124.12,1686298914.03125
115.89,1686298914.046875
107.60,1686298914.0625
99.49,1686298914.078125
91.79,1686298914.09375
84.59,1686298914.109375
77.82,1686298914.125
71.29,1686298914.140625
64.77,1686298914.15625
58.12,1686298914.171875
51.35,1686298914.1875
44.71,1686298914.203125
38.50,1686298914.21875
33.02,1686298914.234375
28.36,1686298914.25
24.36,1686298914.265625
20.64,1686298914.28125
16.82,1686298914.296875
12.62,1686298914.3125
8.07,1686298914.328125
3.48,1686298914.34375
-0.71,1686298914.359375
-4.15,1686298914.375
-6.70,1686298914.390625
-8.48,1686298914.40625
-9.85,1686298914.421875
-11.17,1686298914.4375
-12.79,1686298914.453125
-15.07,1686298914.46875
-18.29,1686298914.484375
-22.49,1686298914.5
-27.11,1686298914.515625
-30.76,1686298914.53125
-31.51,1686298914.546875
-27.53,1686298914.5625
-18.09,1686298914.578125
-4.17,1686298914.59375
11.64,1686298914.609375
26.12,1686298914.625
36.62,1686298914.640625
42.04,1686298914.65625
42.94,1686298914.671875
40.89,1686298914.6875
37.52,1686298914.703125
33.80,1686298914.71875
30.08,1686298914.734375
26.44,1686298914.75
23.18,1686298914.765625
20.82,1686298914.78125
19.79,1686298914.796875
19.97,1686298914.8125
20.63,1686298914.828125
20.73,1686298914.84375
19.48,1686298914.859375
16.68,1686298914.875
12.89,1686298914.890625
9.00,1686298914.90625
5.78,1686298914.921875
3.52,1686298914.9375
2.01,1686298914.953125
0.78,1686298914.96875
-0.52,1686298914.984375
-1.84,1686298915.0
-2.74,1686298915.015625
-2.55,1686298915.03125
-0.75,1686298915.046875
2.78,1686298915.0625
7.59,1686298915.078125
12.78,1686298915.09375
17.26,1686298915.109375
20.16,1686298915.125
21.05,1686298915.140625
20.05,1686298915.15625
17.70,1686298915.171875
14.67,1686298915.1875
11.50,1686298915.203125
8.47,1686298915.21875
5.60,1686298915.234375
2.80,1686298915.25
0.09,1686298915.265625
-2.33,1686298915.28125
-4.08,1686298915.296875
-4.76,1686298915.3125
-4.23,1686298915.328125
-2.74,1686298915.34375
-0.88,1686298915.359375
0.64,1686298915.375
1.37,1686298915.390625
1.33,1686298915.40625
0.90,1686298915.421875
0.59,1686298915.4375
0.69,1686298915.453125
1.12,1686298915.46875
1.53,1686298915.484375
1.60,1686298915.5
1.31,1686298915.515625
0.99,1686298915.53125
1.13,1686298915.546875
2.09,1686298915.5625
3.84,1686298915.578125
5.98,1686298915.59375
7.86,1686298915.609375
8.85,1686298915.625
8.58,1686298915.640625
6.99,1686298915.65625
4.31,1686298915.671875
0.93,1686298915.6875
-2.59,1686298915.703125
-5.73,1686298915.71875
-7.86,1686298915.734375
-8.46,1686298915.75
-7.24,1686298915.765625
-4.39,1686298915.78125
-0.64,1686298915.796875
2.95,1686298915.8125
5.31,1686298915.828125
5.85,1686298915.84375
4.65,1686298915.859375
2.39,1686298915.875
-0.02,1686298915.890625
-1.96,1686298915.90625
-3.30,1686298915.921875
-4.34,1686298915.9375
-5.55,1686298915.953125
-7.17,1686298915.96875
-9.11,1686298915.984375
-10.93,1686298916.0
-12.15,1686298916.015625
-12.45,1686298916.03125
-11.86,1686298916.046875
-10.74,1686298916.0625
-9.57,1686298916.078125
-8.75,1686298916.09375
-8.43,1686298916.109375
-8.50,1686298916.125
-8.70,1686298916.140625
-8.73,1686298916.15625
-8.50,1686298916.171875
-8.13,1686298916.1875
-7.91,1686298916.203125
-8.10,1686298916.21875
-8.80,1686298916.234375
-9.87,1686298916.25
-10.98,1686298916.265625
-11.78,1686298916.28125
-12.01,1686298916.296875
-11.65,1686298916.3125
-10.93,1686298916.328125
-10.16,1686298916.34375
-9.66,1686298916.359375
-9.65,1686298916.375
-10.25,1686298916.390625
-11.51,1686298916.40625
-13.31,1686298916.421875
-15.27,1686298916.4375
-16.74,1686298916.453125
-16.81,1686298916.46875
-14.59,1686298916.484375
-9.58,1686298916.5
-1.97,1686298916.515625
7.25,1686298916.53125
16.53,1686298916.546875
24.30,1686298916.5625
29.56,1686298916.578125
32.09,1686298916.59375
32.39,1686298916.609375
31.34,1686298916.625
29.78,1686298916.640625
28.22,1686298916.65625
26.81,1686298916.671875
25.46,1686298916.6875
23.56,1686298916.703125
21.02,1686298916.71875
18.01,1686298916.734375
14.85,1686298916.75
11.90,1686298916.765625
9.42,1686298916.78125
7.49,1686298916.796875
5.99,1686298916.8125
4.76,1686298916.828125
3.54,1686298916.84375
2.25,1686298916.859375
0.77,1686298916.875
-0.94,1686298916.890625
-2.92,1686298916.90625
-5.19,1686298916.921875
-7.75,1686298916.9375
-10.67,1686298916.953125
-14.02,1686298916.96875
-17.86,1686298916.984375
-22.18,1686298917.0
-26.87,1686298917.015625
-31.70,1686298917.03125
-36.44,1686298917.046875
-40.84,1686298917.0625
-44.82,1686298917.078125
-48.50,1686298917.09375
-52.17,1686298917.109375
-56.20,1686298917.125
-60.88,1686298917.140625
-66.30,1686298917.15625
-72.20,1686298917.171875
-77.91,1686298917.1875
-82.29,1686298917.203125
-83.94,1686298917.21875
-81.52,1686298917.234375
-74.12,1686298917.25
-61.68,1686298917.265625
-45.02,1686298917.28125
-25.69,1686298917.296875
-5.57,1686298917.3125
13.68,1686298917.328125
30.91,1686298917.34375
45.60,1686298917.359375
57.66,1686298917.375
67.12,1686298917.390625
74.03,1686298917.40625
78.35,1686298917.421875
80.10,1686298917.4375
79.49,1686298917.453125
76.97,1686298917.46875
73.20,1686298917.484375
68.87,1686298917.5
64.53,1686298917.515625
60.41,1686298917.53125
56.49,1686298917.546875
52.53,1686298917.5625
48.34,1686298917.578125
43.93,1686298917.59375
39.53,1686298917.609375
35.52,1686298917.625
32.15,1686298917.640625
29.36,1686298917.65625
26.72,1686298917.671875
23.56,1686298917.6875
19.30,1686298917.703125
13.76,1686298917.71875
7.30,1686298917.734375
0.66,1686298917.75
-5.36,1686298917.765625
-10.25,1686298917.78125
-14.00,1686298917.796875
-17.05,1686298917.8125
-20.09,1686298917.828125
-23.76,1686298917.84375
-28.50,1686298917.859375
-34.40,1686298917.875
-41.19,1686298917.890625
-48.15,1686298917.90625
-54.14,1686298917.921875
-57.81,1686298917.9375
-57.86,1686298917.953125
-53.54,1686298917.96875
-44.93,1686298917.984375
-33.01,1686298918.0
-19.42,1686298918.015625
-5.89,1686298918.03125
6.21,1686298918.046875
16.20,1686298918.0625
24.04,1686298918.078125
30.02,1686298918.09375
34.49,1686298918.109375
37.62,1686298918.125
39.37,1686298918.140625
39.69,1686298918.15625
38.67,1686298918.171875
36.64,1686298918.1875
34.11,1686298918.203125
31.62,1686298918.21875
29.59,1686298918.234375
28.17,1686298918.25
27.22,1686298918.265625
26.48,1686298918.28125
25.63,1686298918.296875
24.45,1686298918.3125
22.89,1686298918.328125
21.05,1686298918.34375
19.10,1686298918.359375
17.13,1686298918.375
15.08,1686298918.390625
12.67,1686298918.40625
9.54,1686298918.421875
5.40,1686298918.4375
0.26,1686298918.453125
-5.53,1686298918.46875
-11.38,1686298918.484375
-16.65,1686298918.5
-20.94,1686298918.515625
-24.24,1686298918.53125
-26.91,1686298918.546875
-29.53,1686298918.5625
-32.64,1686298918.578125
-36.64,1686298918.59375
-41.71,1686298918.609375
-47.79,1686298918.625
-54.51,1686298918.640625
-61.12,1686298918.65625
-66.43,1686298918.671875
-69.04,1686298918.6875
-67.66,1686298918.703125
-61.60,1686298918.71875
-51.09,1686298918.734375
-37.31,1686298918.75
-22.07,1686298918.765625
-7.24,1686298918.78125
5.79,1686298918.796875
16.36,1686298918.8125
24.58,1686298918.828125
30.94,1686298918.84375
35.95,1686298918.859375
39.90,1686298918.875
42.76,1686298918.890625
44.35,1686298918.90625
44.62,1686298918.921875
43.73,1686298918.9375
42.09,1686298918.953125
40.18,1686298918.96875
38.37,1686298918.984375
36.80,1686298919.0
35.42,1686298919.015625
34.11,1686298919.03125
32.78,1686298919.046875
31.43,1686298919.0625
30.08,1686298919.078125
28.62,1686298919.09375
26.88,1686298919.109375
24.62,1686298919.125
21.73,1686298919.140625
18.29,1686298919.15625
14.52,1686298919.171875
10.64,1686298919.1875
6.79,1686298919.203125
2.94,1686298919.21875
-1.04,1686298919.234375
-5.25,1686298919.25
-9.68,1686298919.265625
-14.13,1686298919.28125
-18.35,1686298919.296875
-22.19,1686298919.3125
-25.67,1686298919.328125
-29.07,1686298919.34375
-32.80,1686298919.359375
-37.31,1686298919.375
-42.97,1686298919.390625
-49.75,1686298919.40625
-57.19,1686298919.421875
-64.35,1686298919.4375
-69.97,1686298919.453125
-72.70,1686298919.46875
-71.51,1686298919.484375
-66.01,1686298919.5
-56.71,1686298919.515625
-45.00,1686298919.53125
-32.50,1686298919.546875
-20.64,1686298919.5625
-10.31,1686298919.578125
-1.77,1686298919.59375
5.14,1686298919.609375
10.71,1686298919.625
14.96,1686298919.640625
17.56,1686298919.65625
17.86,1686298919.671875
15.61,1686298919.6875
11.09,1686298919.703125
5.15,1686298919.71875
-1.13,1686298919.734375
-6.68,1686298919.75
-10.63,1686298919.765625
-12.44,1686298919.78125
-11.98,1686298919.796875
-9.39,1686298919.8125
-4.65,1686298919.828125
2.43,1686298919.84375
11.96,1686298919.859375
23.79,1686298919.875
37.49,1686298919.890625
52.58,1686298919.90625
68.75,1686298919.921875
85.83,1686298919.9375
101.26,1686298919.953125
111.76,1686298919.96875
114.61,1686298919.984375
109.04,1686298920.0
96.25,1686298920.015625
78.17,1686298920.03125
56.96,1686298920.046875
34.88,1686298920.0625
14.20,1686298920.078125
-3.24,1686298920.09375
-16.01,1686298920.109375
-23.57,1686298920.125
-26.24,1686298920.140625
-25.07,1686298920.15625
-21.47,1686298920.171875
-16.71,1686298920.1875
-11.74,1686298920.203125
-7.23,1686298920.21875
-3.65,1686298920.234375
-1.08,1686298920.25
0.74,1686298920.265625
2.22,1686298920.28125
3.83,1686298920.296875
5.79,1686298920.3125
8.21,1686298920.328125
10.90,1686298920.34375
13.55,1686298920.359375
15.77,1686298920.375
17.42,1686298920.390625
18.66,1686298920.40625
19.36,1686298920.421875
20.26,1686298920.4375
21.80,1686298920.453125
24.29,1686298920.46875
27.50,1686298920.484375
31.16,1686298920.5
34.96,1686298920.515625
38.71,1686298920.53125
42.40,1686298920.546875
46.20,1686298920.5625
50.45,1686298920.578125
55.33,1686298920.59375
61.08,1686298920.609375
67.20,1686298920.625
73.32,1686298920.640625
79.11,1686298920.65625
84.41,1686298920.671875
89.25,1686298920.6875
93.89,1686298920.703125
98.69,1686298920.71875
103.95,1686298920.734375
109.88,1686298920.75
115.80,1686298920.765625
121.10,1686298920.78125
125.24,1686298920.796875
127.83,1686298920.8125
128.58,1686298920.828125
127.22,1686298920.84375
123.17,1686298920.859375
114.85,1686298920.875
105.22,1686298920.890625
94.53,1686298920.90625
82.64,1686298920.921875
69.31,1686298920.9375
54.52,1686298920.953125
38.63,1686298920.96875
22.21,1686298920.984375
5.97,1686298921.0
-9.55,1686298921.015625
-23.97,1686298921.03125
-37.95,1686298921.046875
-52.13,1686298921.0625
-67.19,1686298921.078125
-83.81,1686298921.09375
-102.52,1686298921.109375
-123.37,1686298921.125
-145.50,1686298921.140625
-166.88,1686298921.15625
-184.46,1686298921.171875
-195.60,1686298921.1875
-198.39,1686298921.203125
-192.56,1686298921.21875
-179.70,1686298921.234375
-162.62,1686298921.25
-144.26,1686298921.265625
-126.66,1686298921.28125
-110.58,1686298921.296875
-95.82,1686298921.3125
-82.22,1686298921.328125
-69.81,1686298921.34375
-58.91,1686298921.359375
-49.88,1686298921.375
-42.67,1686298921.390625
-36.78,1686298921.40625
-31.46,1686298921.421875
-26.16,1686298921.4375
-20.76,1686298921.453125
-15.71,1686298921.46875
-11.54,1686298921.484375
-8.52,1686298921.5
-6.49,1686298921.515625
-5.00,1686298921.53125
-3.52,1686298921.546875
-1.73,1686298921.5625
0.43,1686298921.578125
2.70,1686298921.59375
4.76,1686298921.609375
6.28,1686298921.625
7.12,1686298921.640625
7.26,1686298921.65625
6.79,1686298921.671875
5.89,1686298921.6875
4.83,1686298921.703125
3.86,1686298921.71875
3.14,1686298921.734375
2.69,1686298921.75
2.37,1686298921.765625
1.94,1686298921.78125
1.27,1686298921.796875
0.30,1686298921.8125
-0.82,1686298921.828125
-1.86,1686298921.84375
-2.58,1686298921.859375
-2.89,1686298921.875
-2.84,1686298921.890625
-2.64,1686298921.90625
-2.51,1686298921.921875
-2.66,1686298921.9375
-3.15,1686298921.953125
-3.90,1686298921.96875
-4.74,1686298921.984375
-5.45,1686298922.0
-5.86,1686298922.015625
-5.94,1686298922.03125
-5.78,1686298922.046875
-5.53,1686298922.0625
-5.32,1686298922.078125
-5.23,1686298922.09375
-5.23,1686298922.109375
-5.25,1686298922.125
-5.25,1686298922.140625
-5.22,1686298922.15625
-5.24,1686298922.171875
-5.40,1686298922.1875
-5.78,1686298922.203125
-6.39,1686298922.21875
-7.18,1686298922.234375
-8.07,1686298922.25
-8.95,1686298922.265625
-9.67,1686298922.28125
-10.02,1686298922.296875
-9.76,1686298922.3125
-8.66,1686298922.328125
-6.70,1686298922.34375
-4.05,1686298922.359375
-1.09,1686298922.375
1.72,1686298922.390625
4.04,1686298922.40625
5.74,1686298922.421875
6.88,1686298922.4375
7.59,1686298922.453125
8.00,1686298922.46875
8.12,1686298922.484375
7.94,1686298922.5
7.48,1686298922.515625
6.86,1686298922.53125
6.24,1686298922.546875
5.64,1686298922.5625
4.97,1686298922.578125
3.97,1686298922.59375
2.47,1686298922.609375
0.48,1686298922.625
-1.71,1686298922.640625
-3.65,1686298922.65625
-4.95,1686298922.671875
-5.50,1686298922.6875
-5.41,1686298922.703125
-4.96,1686298922.71875
-4.41,1686298922.734375
-3.90,1686298922.75
-3.43,1686298922.765625
-3.01,1686298922.78125
-2.77,1686298922.796875
-2.91,1686298922.8125
-3.60,1686298922.828125
-4.80,1686298922.84375
-6.28,1686298922.859375
-7.65,1686298922.875
-8.60,1686298922.890625
-9.07,1686298922.90625
-9.26,1686298922.921875
-9.49,1686298922.9375
-10.03,1686298922.953125
-10.97,1686298922.96875
-12.20,1686298922.984375
-13.50,1686298923.0
-14.64,1686298923.015625
-15.49,1686298923.03125
-16.05,1686298923.046875
-16.38,1686298923.0625
-16.57,1686298923.078125
-16.66,1686298923.09375
-16.61,1686298923.109375
-16.40,1686298923.125
-16.05,1686298923.140625
-15.60,1686298923.15625
-15.14,1686298923.171875
-14.70,1686298923.1875
-14.29,1686298923.203125
-13.80,1686298923.21875
-13.13,1686298923.234375
-12.30,1686298923.25
-11.43,1686298923.265625
-10.75,1686298923.28125
-10.42,1686298923.296875
-10.48,1686298923.3125
-10.79,1686298923.328125
-11.13,1686298923.34375
-11.31,1686298923.359375
-11.25,1686298923.375
-10.98,1686298923.390625
-10.57,1686298923.40625
-10.06,1686298923.421875
-9.40,1686298923.4375
-8.53,1686298923.453125
-7.42,1686298923.46875
-6.11,1686298923.484375
-4.73,1686298923.5
-3.42,1686298923.515625
-2.20,1686298923.53125
-1.03,1686298923.546875
0.24,1686298923.5625
1.64,1686298923.578125
3.06,1686298923.59375
4.21,1686298923.609375
4.79,1686298923.625
4.64,1686298923.640625
3.87,1686298923.65625
2.80,1686298923.671875
1.86,1686298923.6875
1.25,1686298923.703125
0.98,1686298923.71875
0.83,1686298923.734375
0.51,1686298923.75
-0.09,1686298923.765625
-0.86,1686298923.78125
-1.53,1686298923.796875
-1.80,1686298923.8125
-1.59,1686298923.828125
-1.03,1686298923.84375
-0.51,1686298923.859375
-0.37,1686298923.875
-0.87,1686298923.890625
-1.99,1686298923.90625
-3.45,1686298923.921875
-4.91,1686298923.9375
-6.04,1686298923.953125
-6.74,1686298923.96875
-7.07,1686298923.984375
-7.19,1686298924.0
-7.25,1686298924.015625
-7.34,1686298924.03125
-7.50,1686298924.046875
-7.81,1686298924.0625
-8.37,1686298924.078125
-9.24,1686298924.09375
-10.36,1686298924.109375
-11.48,1686298924.125
-12.25,1686298924.140625
-12.40,1686298924.15625
-11.90,1686298924.171875
-11.03,1686298924.1875
-10.20,1686298924.203125
-9.70,1686298924.21875
-9.60,1686298924.234375
-9.63,1686298924.25
-9.43,1686298924.265625
-8.73,1686298924.28125
-7.50,1686298924.296875
-5.98,1686298924.3125
-4.51,1686298924.328125
-3.38,1686298924.34375
-2.69,1686298924.359375
-2.38,1686298924.375
-2.27,1686298924.390625
-2.24,1686298924.40625
-2.27,1686298924.421875
-2.45,1686298924.4375
-2.98,1686298924.453125
-3.92,1686298924.46875
-5.19,1686298924.484375
-6.55,1686298924.5
-7.71,1686298924.515625
-8.46,1686298924.53125
-8.83,1686298924.546875
-9.03,1686298924.5625
-9.31,1686298924.578125
-9.88,1686298924.59375
-10.67,1686298924.609375
-11.51,1686298924.625
-12.17,1686298924.640625
-12.55,1686298924.65625
-12.65,1686298924.671875
-12.57,1686298924.6875
-12.33,1686298924.703125
-11.84,1686298924.71875
-10.91,1686298924.734375
-9.43,1686298924.75
-7.46,1686298924.765625
-5.29,1686298924.78125
-3.28,1686298924.796875
-1.76,1686298924.8125
-0.87,1686298924.828125
-0.53,1686298924.84375
-0.53,1686298924.859375
-0.70,1686298924.875
-0.97,1686298924.890625
-1.38,1686298924.90625
-1.96,1686298924.921875
-2.64,1686298924.9375
-3.25,1686298924.953125
-3.55,1686298924.96875
-3.46,1686298924.984375
-3.03,1686298925.0
-2.55,1686298925.015625
-2.23,1686298925.03125
-2.19,1686298925.046875
-2.27,1686298925.0625
-2.09,1686298925.078125
-1.37,1686298925.09375
0.03,1686298925.109375
1.88,1686298925.125
3.77,1686298925.140625
5.28,1686298925.15625
6.18,1686298925.171875
6.57,1686298925.1875
6.64,1686298925.203125
6.63,1686298925.21875
6.54,1686298925.234375
6.24,1686298925.25
5.60,1686298925.265625
4.58,1686298925.28125
3.38,1686298925.296875
2.23,1686298925.3125
1.35,1686298925.328125
0.76,1686298925.34375
0.38,1686298925.359375
0.07,1686298925.375
-0.26,1686298925.390625
-0.61,1686298925.40625
-0.92,1686298925.421875
-1.14,1686298925.4375
-1.27,1686298925.453125
-1.37,1686298925.46875
-1.50,1686298925.484375
-1.77,1686298925.5
-2.22,1686298925.515625
-2.82,1686298925.53125
-3.48,1686298925.546875
-4.11,1686298925.5625
-4.60,1686298925.578125
-4.94,1686298925.59375
-5.17,1686298925.609375
-5.37,1686298925.625
-5.59,1686298925.640625
-5.83,1686298925.65625
-6.04,1686298925.671875
-6.12,1686298925.6875
-6.11,1686298925.703125
-6.04,1686298925.71875
-6.00,1686298925.734375
-6.03,1686298925.75
-6.03,1686298925.765625
-5.84,1686298925.78125
-5.31,1686298925.796875
-4.41,1686298925.8125
-3.27,1686298925.828125
-2.10,1686298925.84375
-1.10,1686298925.859375
-0.27,1686298925.875
0.50,1686298925.890625
1.42,1686298925.90625
2.55,1686298925.921875
3.78,1686298925.9375
4.86,1686298925.953125
5.45,1686298925.96875
5.47,1686298925.984375
5.04,1686298926.0
4.50,1686298926.015625
4.12,1686298926.03125
4.01,1686298926.046875
3.98,1686298926.0625
3.76,1686298926.078125
3.11,1686298926.09375
2.02,1686298926.109375
0.74,1686298926.125
-0.45,1686298926.140625
-1.30,1686298926.15625
-1.80,1686298926.171875
-2.04,1686298926.1875
-2.15,1686298926.203125
-2.20,1686298926.21875
-2.18,1686298926.234375
-2.14,1686298926.25
-2.17,1686298926.265625
-2.40,1686298926.28125
-2.90,1686298926.296875
-3.55,1686298926.3125
-4.01,1686298926.328125
-3.97,1686298926.34375
-3.31,1686298926.359375
-2.23,1686298926.375
-1.25,1686298926.390625
-0.90,1686298926.40625
-1.42,1686298926.421875
-2.61,1686298926.4375
-3.83,1686298926.453125
-4.40,1686298926.46875
-3.94,1686298926.484375
-2.64,1686298926.5
-1.08,1686298926.515625
-0.03,1686298926.53125
0.02,1686298926.546875
-0.89,1686298926.5625
-2.20,1686298926.578125
-3.16,1686298926.59375
-3.15,1686298926.609375
-1.95,1686298926.625
0.19,1686298926.640625
2.76,1686298926.65625
5.24,1686298926.671875
7.21,1686298926.6875
8.51,1686298926.703125
9.11,1686298926.71875
9.12,1686298926.734375
8.63,1686298926.75
7.78,1686298926.765625
6.70,1686298926.78125
5.50,1686298926.796875
4.20,1686298926.8125
2.86,1686298926.828125
1.56,1686298926.84375
0.41,1686298926.859375
-0.46,1686298926.875
-1.06,1686298926.890625
-1.46,1686298926.90625
-1.84,1686298926.921875
-2.36,1686298926.9375
-2.99,1686298926.953125
-3.60,1686298926.96875
-3.99,1686298926.984375
-4.03,1686298927.0
-3.79,1686298927.015625
-3.44,1686298927.03125
-3.24,1686298927.046875
-3.36,1686298927.0625
-3.89,1686298927.078125
-4.75,1686298927.09375
-5.80,1686298927.109375
-6.76,1686298927.125
-7.38,1686298927.140625
-7.46,1686298927.15625
-6.95,1686298927.171875
-6.07,1686298927.1875
-5.19,1686298927.203125
-4.70,1686298927.21875
-4.89,1686298927.234375
-5.81,1686298927.25
-7.33,1686298927.265625
-9.17,1686298927.28125
-11.06,1686298927.296875
-12.64,1686298927.3125
-13.58,1686298927.328125
-13.53,1686298927.34375
-12.24,1686298927.359375
-9.65,1686298927.375
-5.95,1686298927.390625
-1.63,1686298927.40625
2.73,1686298927.421875
6.53,1686298927.4375
9.51,1686298927.453125
11.62,1686298927.46875
13.08,1686298927.484375
14.13,1686298927.5
14.92,1686298927.515625
15.42,1686298927.53125
15.50,1686298927.546875
15.05,1686298927.5625
14.16,1686298927.578125
13.07,1686298927.59375
12.08,1686298927.609375
11.46,1686298927.625
11.21,1686298927.640625
11.12,1686298927.65625
10.87,1686298927.671875
10.22,1686298927.6875
9.06,1686298927.703125
7.53,1686298927.71875
5.80,1686298927.734375
4.07,1686298927.75
2.36,1686298927.765625
0.65,1686298927.78125
-1.12,1686298927.796875
-2.99,1686298927.8125
-4.93,1686298927.828125
-6.88,1686298927.84375
-8.70,1686298927.859375
-10.24,1686298927.875
-11.40,1686298927.890625
-12.13,1686298927.90625
-12.52,1686298927.921875
-12.69,1686298927.9375
-12.74,1686298927.953125
-12.67,1686298927.96875
-12.41,1686298927.984375
-11.89,1686298928.0
-11.14,1686298928.015625
-10.37,1686298928.03125
-9.79,1686298928.046875
-9.58,1686298928.0625
-9.64,1686298928.078125
-9.64,1686298928.09375
-9.11,1686298928.109375
-7.66,1686298928.125
-5.16,1686298928.140625
-1.74,1686298928.15625
2.25,1686298928.171875
6.41,1686298928.1875
10.40,1686298928.203125
13.93,1686298928.21875
16.77,1686298928.234375
18.82,1686298928.25
20.06,1686298928.265625
20.60,1686298928.28125
20.60,1686298928.296875
20.22,1686298928.3125
19.54,1686298928.328125
18.57,1686298928.34375
17.32,1686298928.359375
15.84,1686298928.375
14.14,1686298928.390625
12.33,1686298928.40625
10.50,1686298928.421875
8.82,1686298928.4375
7.46,1686298928.453125
6.55,1686298928.46875
6.12,1686298928.484375
6.03,1686298928.5
6.01,1686298928.515625
5.82,1686298928.53125
5.28,1686298928.546875
4.42,1686298928.5625
3.39,1686298928.578125
2.35,1686298928.59375
1.27,1686298928.609375
0.05,1686298928.625
-1.47,1686298928.640625
-3.32,1686298928.65625
-5.28,1686298928.671875
-7.05,1686298928.6875
-8.42,1686298928.703125
-9.33,1686298928.71875
-9.98,1686298928.734375
-10.69,1686298928.75
-11.70,1686298928.765625
-13.12,1686298928.78125
-14.86,1686298928.796875
-16.70,1686298928.8125
-18.33,1686298928.828125
-19.36,1686298928.84375
-19.40,1686298928.859375
-18.02,1686298928.875
-14.96,1686298928.890625
-10.20,1686298928.90625
-4.15,1686298928.921875
2.38,1686298928.9375
8.43,1686298928.953125
13.14,1686298928.96875
16.14,1686298928.984375
17.64,1686298929.0
18.21,1686298929.015625
18.44,1686298929.03125
18.62,1686298929.046875
18.58,1686298929.0625
17.93,1686298929.078125
16.39,1686298929.09375
14.10,1686298929.109375
11.64,1686298929.125
9.66,1686298929.140625
8.51,1686298929.15625
8.07,1686298929.171875
7.83,1686298929.1875
7.23,1686298929.203125
6.02,1686298929.21875
4.41,1686298929.234375
2.77,1686298929.25
1.46,1686298929.265625
0.50,1686298929.28125
-0.38,1686298929.296875
-1.51,1686298929.3125
-3.10,1686298929.328125
-5.04,1686298929.34375
-6.98,1686298929.359375
-8.50,1686298929.375
-9.42,1686298929.390625
-9.81,1686298929.40625
-10.00,1686298929.421875
-10.31,1686298929.4375
-10.93,1686298929.453125
-11.71,1686298929.46875
-12.28,1686298929.484375
-12.32,1686298929.5
-11.71,1686298929.515625
-10.80,1686298929.53125
-10.13,1686298929.546875
-10.30,1686298929.5625
-11.55,1686298929.578125
-13.66,1686298929.59375
-15.97,1686298929.609375
-17.70,1686298929.625
-18.09,1686298929.640625
-16.65,1686298929.65625
-13.18,1686298929.671875
-7.81,1686298929.6875
-1.00,1686298929.703125
6.47,1686298929.71875
13.66,1686298929.734375
19.60,1686298929.75
23.64,1686298929.765625
25.52,1686298929.78125
25.53,1686298929.796875
24.21,1686298929.8125
22.18,1686298929.828125
19.90,1686298929.84375
17.61,1686298929.859375
15.36,1686298929.875
13.12,1686298929.890625
10.96,1686298929.90625
8.96,1686298929.921875
7.23,1686298929.9375
5.84,1686298929.953125
4.72,1686298929.96875
3.78,1686298929.984375
2.87,1686298930.0
1.94,1686298930.015625
0.98,1686298930.03125
0.07,1686298930.046875
-0.75,1686298930.0625
-1.50,1686298930.078125
-2.32,1686298930.09375
-3.33,1686298930.109375
-4.54,1686298930.125
-5.88,1686298930.140625
-7.17,1686298930.15625
-8.20,1686298930.171875
-8.88,1686298930.1875
-9.28,1686298930.203125
-9.62,1686298930.21875
-10.14,1686298930.234375
-11.04,1686298930.25
-12.28,1686298930.265625
-13.69,1686298930.28125
-15.01,1686298930.296875
-16.06,1686298930.3125
-16.90,1686298930.328125
-17.83,1686298930.34375
-19.26,1686298930.359375
-21.39,1686298930.375
-24.07,1686298930.390625
-26.65,1686298930.40625
-28.07,1686298930.421875
-27.31,1686298930.4375
-23.63,1686298930.453125
-16.99,1686298930.46875
-8.04,1686298930.484375
2.05,1686298930.5
11.93,1686298930.515625
20.48,1686298930.53125
27.01,1686298930.546875
31.33,1686298930.5625
33.60,1686298930.578125
34.17,1686298930.59375
33.36,1686298930.609375
31.43,1686298930.625
28.60,1686298930.640625
25.08,1686298930.65625
21.16,1686298930.671875
17.22,1686298930.6875
13.72,1686298930.703125
11.07,1686298930.71875
9.51,1686298930.734375
9.06,1686298930.75
9.46,1686298930.765625
10.22,1686298930.78125
10.81,1686298930.796875
10.77,1686298930.8125
9.92,1686298930.828125
8.33,1686298930.84375
6.34,1686298930.859375
4.36,1686298930.875
2.72,1686298930.890625
1.56,1686298930.90625
0.81,1686298930.921875
0.24,1686298930.9375
-0.38,1686298930.953125
-1.21,1686298930.96875
-2.27,1686298930.984375
-3.49,1686298931.0
-4.87,1686298931.015625
-6.39,1686298931.03125
-8.07,1686298931.046875
-9.86,1686298931.0625
-11.62,1686298931.078125
-13.18,1686298931.09375
-14.41,1686298931.109375
-15.43,1686298931.125
-16.49,1686298931.140625
-17.92,1686298931.15625
-19.77,1686298931.171875
-21.54,1686298931.1875
-22.25,1686298931.203125
-20.71,1686298931.21875
-16.01,1686298931.234375
-8.10,1686298931.25
2.13,1686298931.265625
12.96,1686298931.28125
22.52,1686298931.296875
29.43,1686298931.3125
33.19,1686298931.328125
34.18,1686298931.34375
33.33,1686298931.359375
31.45,1686298931.375
29.02,1686298931.390625
26.03,1686298931.40625
22.37,1686298931.421875
18.09,1686298931.4375
13.65,1686298931.453125
9.77,1686298931.46875
7.10,1686298931.484375
5.86,1686298931.5
5.78,1686298931.515625
6.18,1686298931.53125
6.36,1686298931.546875
5.87,1686298931.5625
4.75,1686298931.578125
3.25,1686298931.59375
1.70,1686298931.609375
0.14,1686298931.625
-1.56,1686298931.640625
-3.64,1686298931.65625
-6.17,1686298931.671875
-8.90,1686298931.6875
-11.42,1686298931.703125
-13.34,1686298931.71875
-14.60,1686298931.734375
-15.49,1686298931.75
-16.48,1686298931.765625
-17.88,1686298931.78125
-19.71,1686298931.796875
-21.62,1686298931.8125
-23.06,1686298931.828125
-23.59,1686298931.84375
-23.13,1686298931.859375
-21.97,1686298931.875
-20.63,1686298931.890625
-19.66,1686298931.90625
-19.48,1686298931.921875
-20.17,1686298931.9375
-21.57,1686298931.953125
-23.19,1686298931.96875
-24.30,1686298931.984375
-24.00,1686298932.0
-21.42,1686298932.015625
-16.00,1686298932.03125
-7.81,1686298932.046875
2.27,1686298932.0625
12.84,1686298932.078125
22.27,1686298932.09375
29.32,1686298932.109375
33.48,1686298932.125
34.96,1686298932.140625
34.52,1686298932.15625
32.99,1686298932.171875
30.99,1686298932.1875
28.78,1686298932.203125
26.39,1686298932.21875
23.81,1686298932.234375
21.11,1686298932.25
18.50,1686298932.265625
16.21,1686298932.28125
14.38,1686298932.296875
12.97,1686298932.3125
11.82,1686298932.328125
10.74,1686298932.34375
9.60,1686298932.359375
8.42,1686298932.375
7.32,1686298932.390625
6.40,1686298932.40625
5.60,1686298932.421875
4.71,1686298932.4375
3.45,1686298932.453125
1.61,1686298932.46875
-0.78,1686298932.484375
-3.44,1686298932.5
-6.00,1686298932.515625
-8.13,1686298932.53125
-9.73,1686298932.546875
-10.93,1686298932.5625
-11.98,1686298932.578125
-13.12,1686298932.59375
-14.42,1686298932.609375
-15.78,1686298932.625
-17.01,1686298932.640625
-17.90,1686298932.65625
-18.42,1686298932.671875
-18.68,1686298932.6875
-18.98,1686298932.703125
-19.70,1686298932.71875
-21.12,1686298932.734375
-23.36,1686298932.75
-26.18,1686298932.765625
-28.93,1686298932.78125
-30.55,1686298932.796875
-29.82,1686298932.8125
-25.79,1686298932.828125
-18.18,1686298932.84375
-7.70,1686298932.859375
4.15,1686298932.875
15.36,1686298932.890625
24.27,1686298932.90625
30.04,1686298932.921875
32.86,1686298932.9375
33.65,1686298932.953125
33.41,1686298932.96875
32.76,1686298932.984375
31.73,1686298933.0
30.04,1686298933.015625
27.40,1686298933.03125
23.95,1686298933.046875
20.27,1686298933.0625
17.04,1686298933.078125
14.76,1686298933.09375
13.49,1686298933.109375
12.88,1686298933.125
12.39,1686298933.140625
11.63,1686298933.15625
10.49,1686298933.171875
9.23,1686298933.1875
8.23,1686298933.203125
7.75,1686298933.21875
7.70,1686298933.234375
7.69,1686298933.25
7.12,1686298933.265625
5.52,1686298933.28125
2.81,1686298933.296875
-0.64,1686298933.3125
-4.19,1686298933.328125
-7.22,1686298933.34375
-9.48,1686298933.359375
-11.12,1686298933.375
-12.56,1686298933.390625
-14.19,1686298933.40625
-16.15,1686298933.421875
-18.22,1686298933.4375
-20.02,1686298933.453125
-21.22,1686298933.46875
-21.75,1686298933.484375
-21.87,1686298933.5
-21.93,1686298933.515625
-22.23,1686298933.53125
-22.91,1686298933.546875
-23.87,1686298933.5625
-24.84,1686298933.578125
-25.39,1686298933.59375
-24.95,1686298933.609375
-22.95,1686298933.625
-18.90,1686298933.640625
-12.68,1686298933.65625
-4.72,1686298933.671875
4.06,1686298933.6875
12.47,1686298933.703125
19.44,1686298933.71875
24.39,1686298933.734375
27.30,1686298933.75
28.60,1686298933.765625
28.76,1686298933.78125
28.11,1686298933.796875
26.70,1686298933.8125
24.48,1686298933.828125
21.50,1686298933.84375
18.07,1686298933.859375
14.74,1686298933.875
12.10,1686298933.890625
10.51,1686298933.90625
9.97,1686298933.921875
10.05,1686298933.9375
10.15,1686298933.953125
9.73,1686298933.96875
8.56,1686298933.984375
6.83,1686298934.0
4.92,1686298934.015625
3.30,1686298934.03125
2.16,1686298934.046875
1.45,1686298934.0625
0.81,1686298934.078125
-0.12,1686298934.09375
-1.53,1686298934.109375
-3.38,1686298934.125
-5.41,1686298934.140625
-7.32,1686298934.15625
-8.89,1686298934.171875
-10.07,1686298934.1875
-10.89,1686298934.203125
-11.60,1686298934.21875
-12.36,1686298934.234375
-13.20,1686298934.25
-14.11,1686298934.265625
-15.25,1686298934.28125
-16.85,1686298934.296875
-19.07,1686298934.3125
-21.83,1686298934.328125
-24.73,1686298934.34375
-27.11,1686298934.359375
-28.04,1686298934.375
-26.49,1686298934.390625
-21.81,1686298934.40625
-14.11,1686298934.421875
-4.39,1686298934.4375
5.79,1686298934.453125
14.86,1686298934.46875
21.65,1686298934.484375
25.42,1686298934.5
26.30,1686298934.515625
25.17,1686298934.53125
22.96,1686298934.546875
20.13,1686298934.5625
16.74,1686298934.578125
12.76,1686298934.59375
8.39,1686298934.609375
4.10,1686298934.625
-0.52,1686298934.640625
-5.43,1686298934.65625
-9.90,1686298934.671875
-13.20,1686298934.6875
-15.27,1686298934.703125
-16.55,1686298934.71875
-17.57,1686298934.734375
-18.66,1686298934.75
-20.00,1686298934.765625
-23.54,1686298934.78125
-29.82,1686298934.796875
-37.18,1686298934.8125
-43.37,1686298934.828125
-47.34,1686298934.84375
-49.46,1686298934.859375
-50.79,1686298934.875
-52.40,1686298934.890625
-54.94,1686298934.90625
-61.64,1686298934.921875
-73.06,1686298934.9375
-86.26,1686298934.953125
-97.36,1686298934.96875
-104.60,1686298934.984375
-108.53,1686298935.0
-110.86,1686298935.015625
-113.37,1686298935.03125
-117.43,1686298935.046875
-127.97,1686298935.0625
-146.35,1686298935.078125
-168.81,1686298935.09375
-189.14,1686298935.109375
-202.70,1686298935.125
-207.19,1686298935.140625
-202.27,1686298935.15625
-189.30,1686298935.171875
-144.51,1686298935.1875
-67.13,1686298935.203125
20.27,1686298935.21875
91.83,1686298935.234375
137.94,1686298935.25
162.50,1686298935.265625
173.28,1686298935.28125
176.43,1686298935.296875
175.54,1686298935.3125
172.42,1686298935.328125
164.04,1686298935.34375
149.94,1686298935.359375
133.80,1686298935.375
120.35,1686298935.390625
111.63,1686298935.40625
106.94,1686298935.421875
104.39,1686298935.4375
102.34,1686298935.453125
99.92,1686298935.46875
93.75,1686298935.484375
83.11,1686298935.5
70.65,1686298935.515625
59.92,1686298935.53125
52.55,1686298935.546875
48.09,1686298935.5625
45.27,1686298935.578125
42.90,1686298935.59375
40.37,1686298935.609375
35.49,1686298935.625
27.77,1686298935.640625
18.87,1686298935.65625
10.99,1686298935.671875
5.18,1686298935.6875
1.19,1686298935.703125
-1.74,1686298935.71875
-4.32,1686298935.734375
-6.95,1686298935.75
-10.67,1686298935.765625
-15.74,1686298935.78125
-21.25,1686298935.796875
-26.01,1686298935.8125
-29.32,1686298935.828125
-31.04,1686298935.84375
-31.31,1686298935.859375
-30.22,1686298935.875
-27.77,1686298935.890625
-24.22,1686298935.90625
-19.66,1686298935.921875
-13.75,1686298935.9375
-6.27,1686298935.953125
2.70,1686298935.96875
12.78,1686298935.984375
23.28,1686298936.0
33.53,1686298936.015625
42.92,1686298936.03125
50.98,1686298936.046875
57.32,1686298936.0625
61.75,1686298936.078125
64.23,1686298936.09375
64.85,1686298936.109375
63.94,1686298936.125
61.73,1686298936.140625
58.52,1686298936.15625
54.65,1686298936.171875
50.41,1686298936.1875
46.03,1686298936.203125
41.62,1686298936.21875
37.27,1686298936.234375
32.95,1686298936.25
28.78,1686298936.265625
24.60,1686298936.28125
20.19,1686298936.296875
15.55,1686298936.3125
10.49,1686298936.328125
4.87,1686298936.34375
-1.42,1686298936.359375
-8.44,1686298936.375
-17.20,1686298936.390625
-26.95,1686298936.40625
-37.13,1686298936.421875
-47.37,1686298936.4375
-57.10,1686298936.453125
-66.02,1686298936.46875
-73.87,1686298936.484375
-80.35,1686298936.5
-85.20,1686298936.515625
-88.13,1686298936.53125
-88.78,1686298936.546875
-87.01,1686298936.5625
-82.73,1686298936.578125
-75.57,1686298936.59375
-65.58,1686298936.609375
-52.98,1686298936.625
-38.15,1686298936.640625
-21.61,1686298936.65625
-3.98,1686298936.671875
14.07,1686298936.6875
31.86,1686298936.703125
46.90,1686298936.71875
59.02,1686298936.734375
68.21,1686298936.75
74.56,1686298936.765625
78.25,1686298936.78125
79.58,1686298936.796875
78.95,1686298936.8125
76.74,1686298936.828125
73.43,1686298936.84375
69.42,1686298936.859375
65.34,1686298936.875
61.42,1686298936.890625
57.74,1686298936.90625
54.34,1686298936.921875
51.17,1686298936.9375
48.19,1686298936.953125
45.22,1686298936.96875
42.29,1686298936.984375
39.37,1686298937.0
36.67,1686298937.015625
34.11,1686298937.03125
31.57,1686298937.046875
28.87,1686298937.0625
25.80,1686298937.078125
23.17,1686298937.09375
20.06,1686298937.109375
16.24,1686298937.125
11.72,1686298937.140625
6.78,1686298937.15625
1.61,1686298937.171875
-3.66,1686298937.1875
-8.98,1686298937.203125
-14.34,1686298937.21875
-19.64,1686298937.234375
-24.95,1686298937.25
-30.01,1686298937.265625
-34.51,1686298937.28125
-38.03,1686298937.296875
-40.33,1686298937.3125
-41.36,1686298937.328125
-41.28,1686298937.34375
-40.46,1686298937.359375
-39.06,1686298937.375
-37.43,1686298937.390625
-35.51,1686298937.40625
-33.11,1686298937.421875
-29.88,1686298937.4375
-25.59,1686298937.453125
-20.27,1686298937.46875
-14.23,1686298937.484375
-8.01,1686298937.5
-1.77,1686298937.515625
4.12,1686298937.53125
9.56,1686298937.546875
14.62,1686298937.5625
19.50,1686298937.578125
24.43,1686298937.59375
29.84,1686298937.609375
36.29,1686298937.625
44.21,1686298937.640625
53.91,1686298937.65625
64.32,1686298937.671875
73.19,1686298937.6875
77.75,1686298937.703125
75.79,1686298937.71875
66.72,1686298937.734375
51.90,1686298937.75
34.30,1686298937.765625
14.63,1686298937.78125
-4.27,1686298937.796875
-20.30,1686298937.8125
-32.61,1686298937.828125
-41.38,1686298937.84375
-47.27,1686298937.859375
-51.00,1686298937.875
-53.56,1686298937.890625
-56.15,1686298937.90625
-59.99,1686298937.921875
-65.36,1686298937.9375
-71.90,1686298937.953125
-78.10,1686298937.96875
-81.53,1686298937.984375
-79.58,1686298938.0
-70.50,1686298938.015625
-54.40,1686298938.03125
-33.13,1686298938.046875
-9.51,1686298938.0625
14.00,1686298938.078125
35.32,1686298938.09375
53.31,1686298938.109375
67.75,1686298938.125
79.10,1686298938.140625
87.95,1686298938.15625
94.04,1686298938.171875
97.04,1686298938.1875
97.26,1686298938.203125
96.08,1686298938.21875
94.95,1686298938.234375
94.85,1686298938.25
96.08,1686298938.265625
98.35,1686298938.28125
101.06,1686298938.296875
102.19,1686298938.3125
100.50,1686298938.328125
96.56,1686298938.34375
92.62,1686298938.359375
90.94,1686298938.375
92.30,1686298938.390625
95.66,1686298938.40625
98.79,1686298938.421875
99.00,1686298938.4375
91.95,1686298938.453125
75.44,1686298938.46875
51.17,1686298938.484375
24.31,1686298938.5
0.27,1686298938.515625
-18.19,1686298938.53125
-32.05,1686298938.546875
-44.97,1686298938.5625
-61.72,1686298938.578125
-89.29,1686298938.59375
-131.93,1686298938.609375
-189.10,1686298938.625
-255.80,1686298938.640625
-325.17,1686298938.65625
-390.57,1686298938.671875
-445.55,1686298938.6875
-483.56,1686298938.703125
-480.67,1686298938.71875
-423.85,1686298938.734375
-321.36,1686298938.75
-200.37,1686298938.765625
-89.10,1686298938.78125
-2.59,1686298938.796875
58.06,1686298938.8125
99.24,1686298938.828125
129.34,1686298938.84375
153.33,1686298938.859375
168.01,1686298938.875
168.93,1686298938.890625
155.42,1686298938.90625
132.19,1686298938.921875
106.93,1686298938.9375
86.15,1686298938.953125
72.36,1686298938.96875
66.28,1686298938.984375
66.45,1686298939.0
67.87,1686298939.015625
66.04,1686298939.03125
58.92,1686298939.046875
46.67,1686298939.0625
30.17,1686298939.078125
9.47,1686298939.09375
-15.94,1686298939.109375
-44.70,1686298939.125
-73.04,1686298939.140625
-97.14,1686298939.15625
-113.28,1686298939.171875
-118.14,1686298939.1875
-109.09,1686298939.203125
-84.82,1686298939.21875
-47.46,1686298939.234375
-3.11,1686298939.25
39.84,1686298939.265625
73.43,1686298939.28125
92.60,1686298939.296875
97.53,1686298939.3125
94.76,1686298939.328125
89.31,1686298939.34375
84.47,1686298939.359375
80.48,1686298939.375
75.60,1686298939.390625
68.19,1686298939.40625
57.83,1686298939.421875
45.27,1686298939.4375
31.68,1686298939.453125
17.69,1686298939.46875
2.71,1686298939.484375
-14.02,1686298939.5
-32.95,1686298939.515625
-53.24,1686298939.53125
-71.81,1686298939.546875
-84.59,1686298939.5625
-88.10,1686298939.578125
-80.98,1686298939.59375
-64.84,1686298939.609375
-44.12,1686298939.625
-23.98,1686298939.640625
-8.74,1686298939.65625
-0.37,1686298939.671875
1.89,1686298939.6875
0.64,1686298939.703125
-1.18,1686298939.71875
-1.58,1686298939.734375
-0.04,1686298939.75
2.72,1686298939.765625
5.81,1686298939.78125
8.74,1686298939.796875
11.54,1686298939.8125
14.58,1686298939.828125
17.93,1686298939.84375
21.08,1686298939.859375
22.89,1686298939.875
22.02,1686298939.890625
17.33,1686298939.90625
8.58,1686298939.921875
-3.43,1686298939.9375
-16.82,1686298939.953125
-29.04,1686298939.96875
-37.44,1686298939.984375
-39.94,1686298940.0
-35.68,1686298940.015625
-25.19,1686298940.03125
-10.34,1686298940.046875
6.41,1686298940.0625
22.64,1686298940.078125
36.68,1686298940.09375
47.89,1686298940.109375
56.45,1686298940.125
62.97,1686298940.140625
67.91,1686298940.15625
71.31,1686298940.171875
72.87,1686298940.1875
72.17,1686298940.203125
69.06,1686298940.21875
63.77,1686298940.234375
56.87,1686298940.25
49.03,1686298940.265625
40.78,1686298940.28125
32.45,1686298940.296875
24.38,1686298940.3125
17.00,1686298940.328125
11.02,1686298940.34375
7.14,1686298940.359375
5.76,1686298940.375
6.64,1686298940.390625
8.80,1686298940.40625
10.82,1686298940.421875
11.31,1686298940.4375
9.43,1686298940.453125
5.09,1686298940.46875
-1.07,1686298940.484375
-8.07,1686298940.5
-15.01,1686298940.515625
-21.28,1686298940.53125
-26.71,1686298940.546875
-31.52,1686298940.5625
-36.19,1686298940.578125
-41.31,1686298940.59375
-47.46,1686298940.609375
-54.92,1686298940.625
-63.41,1686298940.640625
-71.92,1686298940.65625
-78.78,1686298940.671875
-82.03,1686298940.6875
-79.98,1686298940.703125
-71.87,1686298940.71875
-58.16,1686298940.734375
-40.46,1686298940.75
-21.04,1686298940.765625
-2.09,1686298940.78125
14.76,1686298940.796875
28.74,1686298940.8125
39.74,1686298940.828125
48.05,1686298940.84375
54.07,1686298940.859375
58.10,1686298940.875
60.38,1686298940.890625
61.04,1686298940.90625
60.26,1686298940.921875
58.19,1686298940.9375
55.05,1686298940.953125
51.11,1686298940.96875
46.70,1686298940.984375
42.22,1686298941.0
38.02,1686298941.015625
34.42,1686298941.03125
31.56,1686298941.046875
29.45,1686298941.0625
27.92,1686298941.078125
26.71,1686298941.09375
25.39,1686298941.109375
23.46,1686298941.125
20.42,1686298941.140625
15.88,1686298941.15625
9.82,1686298941.171875
2.52,1686298941.1875
-5.33,1686298941.203125
-12.96,1686298941.21875
-19.74,1686298941.234375
-25.42,1686298941.25
-30.27,1686298941.265625
-34.93,1686298941.28125
-40.24,1686298941.296875
-46.94,1686298941.3125
-55.28,1686298941.328125
-64.79,1686298941.34375
-74.15,1686298941.359375
-81.41,1686298941.375
-84.41,1686298941.390625
-81.43,1686298941.40625
-71.81,1686298941.421875
-56.31,1686298941.4375
-36.87,1686298941.453125
-16.10,1686298941.46875
3.47,1686298941.484375
20.09,1686298941.5
33.00,1686298941.515625
42.33,1686298941.53125
48.66,1686298941.546875
52.59,1686298941.5625
54.49,1686298941.578125
54.51,1686298941.59375
52.78,1686298941.609375
49.58,1686298941.625
45.41,1686298941.640625
40.85,1686298941.65625
36.47,1686298941.671875
32.57,1686298941.6875
29.25,1686298941.703125
26.42,1686298941.71875
23.93,1686298941.734375
21.67,1686298941.75
19.65,1686298941.765625
17.89,1686298941.78125
16.39,1686298941.796875
15.00,1686298941.8125
13.34,1686298941.828125
10.90,1686298941.84375
7.15,1686298941.859375
1.77,1686298941.875
-5.09,1686298941.890625
-12.80,1686298941.90625
-20.36,1686298941.921875
-26.80,1686298941.9375
-31.53,1686298941.953125
-34.62,1686298941.96875
-36.79,1686298941.984375
-39.08,1686298942.0
-42.47,1686298942.015625
-47.44,1686298942.03125
-53.77,1686298942.046875
-60.47,1686298942.0625
-65.95,1686298942.078125
-68.45,1686298942.09375
-66.44,1686298942.109375
-59.16,1686298942.125
-46.85,1686298942.140625
-30.75,1686298942.15625
-12.79,1686298942.171875
5.00,1686298942.1875
20.91,1686298942.203125
34.00,1686298942.21875
44.04,1686298942.234375
51.31,1686298942.25
56.25,1686298942.265625
59.16,1686298942.28125
60.11,1686298942.296875
59.05,1686298942.3125
56.05,1686298942.328125
51.46,1686298942.34375
46.04,1686298942.359375
40.69,1686298942.375
36.24,1686298942.390625
33.12,1686298942.40625
31.23,1686298942.421875
30.08,1686298942.4375
29.03,1686298942.453125
27.66,1686298942.46875
25.85,1686298942.484375
23.75,1686298942.5
21.58,1686298942.515625
19.39,1686298942.53125
16.91,1686298942.546875
13.72,1686298942.5625
9.39,1686298942.578125
3.78,1686298942.59375
-2.87,1686298942.609375
-9.92,1686298942.625
-16.67,1686298942.640625
-22.50,1686298942.65625
-27.21,1686298942.671875
-30.99,1686298942.6875
-34.37,1686298942.703125
-37.98,1686298942.71875
-42.32,1686298942.734375
-47.70,1686298942.75
-54.13,1686298942.765625
-61.32,1686298942.78125
-68.54,1686298942.796875
-74.63,1686298942.8125
-78.07,1686298942.828125
-77.30,1686298942.84375
-71.22,1686298942.859375
-59.61,1686298942.875
-43.36,1686298942.890625
-24.26,1686298942.90625
-4.53,1686298942.921875
13.78,1686298942.9375
29.26,1686298942.953125
41.35,1686298942.96875
50.16,1686298942.984375
56.15,1686298943.0
59.85,1686298943.015625
61.60,1686298943.03125
61.65,1686298943.046875
60.15,1686298943.0625
57.32,1686298943.078125
53.58,1686298943.09375
49.42,1686298943.109375
45.39,1686298943.125
41.83,1686298943.140625
38.90,1686298943.15625
36.52,1686298943.171875
34.52,1686298943.1875
32.75,1686298943.203125
31.06,1686298943.21875
29.39,1686298943.234375
27.64,1686298943.25
25.62,1686298943.265625
23.11,1686298943.28125
19.95,1686298943.296875
16.11,1686298943.3125
11.68,1686298943.328125
6.80,1686298943.34375
1.59,1686298943.359375
-3.93,1686298943.375
-9.77,1686298943.390625
-15.92,1686298943.40625
-22.31,1686298943.421875
-28.75,1686298943.4375
-35.00,1686298943.453125
-40.82,1686298943.46875
-46.05,1686298943.484375
-50.72,1686298943.5
-55.02,1686298943.515625
-59.34,1686298943.53125
-64.12,1686298943.546875
-69.64,1686298943.5625
-75.68,1686298943.578125
-81.35,1686298943.59375
-85.11,1686298943.609375
-85.11,1686298943.625
-79.89,1686298943.640625
-68.94,1686298943.65625
-52.99,1686298943.671875
-33.91,1686298943.6875
-14.04,1686298943.703125
4.47,1686298943.71875
20.27,1686298943.734375
32.97,1686298943.75
42.91,1686298943.765625
50.64,1686298943.78125
56.50,1686298943.796875
60.46,1686298943.8125
62.25,1686298943.828125
61.67,1686298943.84375
58.88,1686298943.859375
54.48,1686298943.875
49.31,1686298943.890625
44.15,1686298943.90625
39.45,1686298943.921875
35.31,1686298943.9375
31.64,1686298943.953125
28.35,1686298943.96875
25.52,1686298943.984375
23.29,1686298944.0
21.70,1686298944.015625
20.53,1686298944.03125
19.27,1686298944.046875
17.38,1686298944.0625
14.48,1686298944.078125
10.54,1686298944.09375
5.89,1686298944.109375
1.03,1686298944.125
-3.65,1686298944.140625
-7.99,1686298944.15625
-12.08,1686298944.171875
-16.20,1686298944.1875
-20.59,1686298944.203125
-25.30,1686298944.21875
-30.12,1686298944.234375
-34.69,1686298944.25
-38.65,1686298944.265625
-41.88,1686298944.28125
-44.57,1686298944.296875
-47.13,1686298944.3125
-50.01,1686298944.328125
-53.45,1686298944.34375
-57.36,1686298944.359375
-61.36,1686298944.375
-64.75,1686298944.390625
-66.74,1686298944.40625
-66.39,1686298944.421875
-62.85,1686298944.4375
-55.51,1686298944.453125
-44.30,1686298944.46875
-29.84,1686298944.484375
-13.42,1686298944.5
3.25,1686298944.515625
18.63,1686298944.53125
31.64,1686298944.546875
41.97,1686298944.5625
49.84,1686298944.578125
55.67,1686298944.59375
59.74,1686298944.609375
62.08,1686298944.625
62.45,1686298944.640625
60.74,1686298944.65625
57.11,1686298944.671875
52.17,1686298944.6875
46.81,1686298944.703125
41.99,1686298944.71875
38.37,1686298944.734375
36.15,1686298944.75
35.13,1686298944.765625
34.79,1686298944.78125
34.64,1686298944.796875
34.26,1686298944.8125
33.43,1686298944.828125
32.01,1686298944.84375
29.89,1686298944.859375
26.94,1686298944.875
23.11,1686298944.890625
18.44,1686298944.90625
13.10,1686298944.921875
7.34,1686298944.9375
1.43,1686298944.953125
-4.44,1686298944.96875
-10.15,1686298944.984375
-15.61,1686298945.0
-20.78,1686298945.015625
-25.57,1686298945.03125
-29.94,1686298945.046875
-33.90,1686298945.0625
-37.61,1686298945.078125
-41.38,1686298945.09375
-45.68,1686298945.109375
-51.06,1686298945.125
-58.01,1686298945.140625
-66.64,1686298945.15625
-76.47,1686298945.171875
-86.19,1686298945.1875
-93.85,1686298945.203125
-97.33,1686298945.21875
-94.98,1686298945.234375
-86.23,1686298945.25
-71.81,1686298945.265625
-53.57,1686298945.28125
-33.86,1686298945.296875
-14.88,1686298945.3125
1.77,1686298945.328125
15.28,1686298945.34375
25.50,1686298945.359375
32.71,1686298945.375
37.31,1686298945.390625
39.74,1686298945.40625
40.42,1686298945.421875
39.78,1686298945.4375
38.23,1686298945.453125
36.23,1686298945.46875
34.21,1686298945.484375
32.51,1686298945.5
31.35,1686298945.515625
30.76,1686298945.53125
30.65,1686298945.546875
30.79,1686298945.5625
30.95,1686298945.578125
30.87,1686298945.59375
30.36,1686298945.609375
29.25,1686298945.625
27.41,1686298945.640625
24.77,1686298945.65625
21.30,1686298945.671875
17.11,1686298945.6875
12.35,1686298945.703125
7.25,1686298945.71875
1.99,1686298945.734375
-3.31,1686298945.75
-8.61,1686298945.765625
-13.99,1686298945.78125
-19.55,1686298945.796875
-25.30,1686298945.8125
-31.14,1686298945.828125
-36.89,1686298945.84375
-42.33,1686298945.859375
-47.40,1686298945.875
-52.28,1686298945.890625
-57.28,1686298945.90625
-62.64,1686298945.921875
-68.22,1686298945.9375
-73.23,1686298945.953125
-76.28,1686298945.96875
-75.67,1686298945.984375
-69.93,1686298946.0
-58.40,1686298946.015625
-41.57,1686298946.03125
-21.05,1686298946.046875
0.76,1686298946.0625
21.36,1686298946.078125
38.75,1686298946.09375
51.76,1686298946.109375
60.22,1686298946.125
64.65,1686298946.140625
65.93,1686298946.15625
64.91,1686298946.171875
62.26,1686298946.1875
58.38,1686298946.203125
53.50,1686298946.21875
47.86,1686298946.234375
41.75,1686298946.25
35.59,1686298946.265625
29.82,1686298946.28125
24.79,1686298946.296875
20.71,1686298946.3125
17.60,1686298946.328125
15.31,1686298946.34375
13.62,1686298946.359375
12.31,1686298946.375
11.16,1686298946.390625
9.98,1686298946.40625
8.61,1686298946.421875
6.89,1686298946.4375
4.66,1686298946.453125
1.82,1686298946.46875
-1.72,1686298946.484375
-5.97,1686298946.5
-10.87,1686298946.515625
-16.21,1686298946.53125
-21.69,1686298946.546875
-26.94,1686298946.5625
-31.65,1686298946.578125
-35.69,1686298946.59375
-39.17,1686298946.609375
-42.40,1686298946.625
-45.77,1686298946.640625
-49.67,1686298946.65625
-54.35,1686298946.671875
-59.82,1686298946.6875
-65.81,1686298946.703125
-71.60,1686298946.71875
-76.07,1686298946.734375
-77.70,1686298946.75
-75.05,1686298946.765625
-67.16,1686298946.78125
-54.05,1686298946.796875
-36.81,1686298946.8125
-17.39,1686298946.828125
1.95,1686298946.84375
19.29,1686298946.859375
33.46,1686298946.875
44.17,1686298946.890625
51.72,1686298946.90625
56.68,1686298946.921875
59.57,1686298946.9375
60.67,1686298946.953125
60.13,1686298946.96875
58.07,1686298946.984375
54.80,1686298947.0
50.84,1686298947.015625
46.87,1686298947.03125
43.49,1686298947.046875
41.03,1686298947.0625
39.49,1686298947.078125
38.50,1686298947.09375
37.56,1686298947.109375
36.27,1686298947.125
34.46,1686298947.140625
32.17,1686298947.15625
29.59,1686298947.171875
26.87,1686298947.1875
24.02,1686298947.203125
20.91,1686298947.21875
17.36,1686298947.234375
13.23,1686298947.25
8.47,1686298947.265625
3.21,1686298947.28125
-2.38,1686298947.296875
-8.06,1686298947.3125
-13.54,1686298947.328125
-18.60,1686298947.34375
-23.08,1686298947.359375
-27.04,1686298947.375
-30.69,1686298947.390625
-34.47,1686298947.40625
-38.86,1686298947.421875
-44.25,1686298947.4375
-50.81,1686298947.453125
-58.19,1686298947.46875
-65.52,1686298947.484375
-71.40,1686298947.5
-74.11,1686298947.515625
-72.06,1686298947.53125
-64.36,1686298947.546875
-51.24,1686298947.5625
-34.13,1686298947.578125
-15.25,1686298947.59375
3.01,1686298947.609375
18.84,1686298947.625
31.35,1686298947.640625
40.56,1686298947.65625
46.94,1686298947.671875
50.98,1686298947.6875
52.94,1686298947.703125
52.83,1686298947.71875
50.75,1686298947.734375
47.11,1686298947.75
42.68,1686298947.765625
38.44,1686298947.78125
35.24,1686298947.796875
33.50,1686298947.8125
33.04,1686298947.828125
33.21,1686298947.84375
33.19,1686298947.859375
32.37,1686298947.875
30.58,1686298947.890625
28.14,1686298947.90625
25.62,1686298947.921875
23.51,1686298947.9375
21.89,1686298947.953125
20.33,1686298947.96875
18.14,1686298947.984375
14.64,1686298948.0
9.49,1686298948.015625
2.84,1686298948.03125
-4.76,1686298948.046875
-12.59,1686298948.0625
-19.99,1686298948.078125
-26.50,1686298948.09375
-31.94,1686298948.109375
-36.40,1686298948.125
-40.19,1686298948.140625
-43.75,1686298948.15625
-47.58,1686298948.171875
-51.99,1686298948.1875
-56.91,1686298948.203125
-61.71,1686298948.21875
-65.23,1686298948.234375
-66.03,1686298948.25
-62.81,1686298948.265625
-54.88,1686298948.28125
-42.45,1686298948.296875
-26.67,1686298948.3125
-9.30,1686298948.328125
7.74,1686298948.34375
22.86,1686298948.359375
35.13,1686298948.375
44.34,1686298948.390625
50.75,1686298948.40625
54.78,1686298948.421875
56.74,1686298948.4375
56.69,1686298948.453125
54.64,1686298948.46875
50.71,1686298948.484375
45.43,1686298948.5
39.67,1686298948.515625
34.41,1686298948.53125
30.37,1686298948.546875
27.76,1686298948.5625
26.25,1686298948.578125
25.23,1686298948.59375
24.15,1686298948.609375
22.81,1686298948.625
21.37,1686298948.640625
20.16,1686298948.65625
19.32,1686298948.671875
18.69,1686298948.6875
17.74,1686298948.703125
15.91,1686298948.71875
12.86,1686298948.734375
8.62,1686298948.75
3.66,1686298948.765625
-1.34,1686298948.78125
-5.74,1686298948.796875
-9.21,1686298948.8125
-11.83,1686298948.828125
-14.04,1686298948.84375
-16.50,1686298948.859375
-19.87,1686298948.875
-24.67,1686298948.890625
-31.12,1686298948.90625
-39.13,1686298948.921875
-48.13,1686298948.9375
-57.14,1686298948.953125
-64.71,1686298948.96875
-69.28,1686298948.984375
-69.52,1686298949.0
-64.82,1686298949.015625
-55.54,1686298949.03125
-42.95,1686298949.046875
-28.93,1686298949.0625
-15.34,1686298949.078125
-3.52,1686298949.09375
5.93,1686298949.109375
13.05,1686298949.125
18.21,1686298949.140625
21.77,1686298949.15625
23.91,1686298949.171875
24.74,1686298949.1875
24.45,1686298949.203125
23.45,1686298949.21875
22.34,1686298949.234375
21.73,1686298949.25
21.99,1686298949.265625
23.14,1686298949.28125
24.84,1686298949.296875
26.58,1686298949.3125
27.93,1686298949.328125
28.63,1686298949.34375
28.67,1686298949.359375
28.12,1686298949.375
27.10,1686298949.390625
25.63,1686298949.40625
23.64,1686298949.421875
20.99,1686298949.4375
17.49,1686298949.453125
13.05,1686298949.46875
7.65,1686298949.484375
1.48,1686298949.5
-5.07,1686298949.515625
-11.43,1686298949.53125
-17.06,1686298949.546875
-21.58,1686298949.5625
-24.96,1686298949.578125
-27.55,1686298949.59375
-30.02,1686298949.609375
-33.11,1686298949.625
-37.42,1686298949.640625
-43.13,1686298949.65625
-49.87,1686298949.671875
-56.66,1686298949.6875
-62.06,1686298949.703125
-64.43,1686298949.71875
-62.35,1686298949.734375
-55.10,1686298949.75
-42.94,1686298949.765625
-27.15,1686298949.78125
-9.69,1686298949.796875
7.36,1686298949.8125
22.34,1686298949.828125
34.38,1686298949.84375
43.36,1686298949.859375
49.66,1686298949.875
53.76,1686298949.890625
56.00,1686298949.90625
56.51,1686298949.921875
55.41,1686298949.9375
52.97,1686298949.953125
49.69,1686298949.96875
46.20,1686298949.984375
43.09,1686298950.0
40.67,1686298950.015625
38.95,1686298950.03125
37.65,1686298950.046875
36.41,1686298950.0625
34.91,1686298950.078125
33.03,1686298950.09375
30.78,1686298950.109375
28.34,1686298950.125
25.84,1686298950.140625
23.32,1686298950.15625
20.64,1686298950.171875
17.49,1686298950.1875
13.52,1686298950.203125
8.47,1686298950.21875
2.30,1686298950.234375
-4.69,1686298950.25
-11.90,1686298950.265625
-18.66,1686298950.28125
-24.43,1686298950.296875
-29.03,1686298950.3125
-32.78,1686298950.328125
-36.30,1686298950.34375
-40.32,1686298950.359375
-45.38,1686298950.375
-51.68,1686298950.390625
-58.94,1686298950.40625
-66.40,1686298950.421875
-72.85,1686298950.4375
-76.78,1686298950.453125
-76.67,1686298950.46875
-71.44,1686298950.484375
-60.84,1686298950.5
-45.70,1686298950.515625
-27.84,1686298950.53125
-9.58,1686298950.546875
6.90,1686298950.5625
20.14,1686298950.578125
29.68,1686298950.59375
35.85,1686298950.609375
39.43,1686298950.625
41.18,1686298950.640625
41.55,1686298950.65625
40.69,1686298950.671875
38.63,1686298950.6875
35.56,1686298950.703125
31.94,1686298950.71875
28.45,1686298950.734375
25.70,1686298950.75
24.01,1686298950.765625
23.23,1686298950.78125
22.88,1686298950.796875
22.36,1686298950.8125
21.34,1686298950.828125
19.84,1686298950.84375
18.19,1686298950.859375
16.74,1686298950.875
15.60,1686298950.890625
14.54,1686298950.90625
13.01,1686298950.921875
10.45,1686298950.9375
6.53,1686298950.953125
1.36,1686298950.96875
-4.58,1686298950.984375
-10.53,1686298951.0
-15.79,1686298951.015625
-19.99,1686298951.03125
-23.21,1686298951.046875
-25.91,1686298951.0625
-28.79,1686298951.078125
-32.51,1686298951.09375
-37.48,1686298951.109375
-43.77,1686298951.125
-51.00,1686298951.140625
-58.33,1686298951.15625
-64.47,1686298951.171875
-67.81,1686298951.1875
-66.76,1686298951.203125
-60.29,1686298951.21875
-48.41,1686298951.234375
-32.33,1686298951.25
-14.21,1686298951.265625
3.54,1686298951.28125
18.94,1686298951.296875
30.94,1686298951.3125
39.44,1686298951.328125
44.95,1686298951.34375
48.11,1686298951.359375
49.40,1686298951.375
49.04,1686298951.390625
47.21,1686298951.40625
44.20,1686298951.421875
40.55,1686298951.4375
36.91,1686298951.453125
33.91,1686298951.46875
31.90,1686298951.484375
30.84,1686298951.5
30.37,1686298951.515625
29.93,1686298951.53125
29.07,1686298951.546875
27.57,1686298951.5625
25.46,1686298951.578125
22.98,1686298951.59375
20.38,1686298951.609375
17.80,1686298951.625
15.19,1686298951.640625
12.31,1686298951.65625
8.84,1686298951.671875
4.56,1686298951.6875
-0.58,1686298951.703125
-6.38,1686298951.71875
-12.32,1686298951.734375
-17.84,1686298951.75
-22.46,1686298951.765625
-26.01,1686298951.78125
-28.72,1686298951.796875
-31.16,1686298951.8125
-34.04,1686298951.828125
-37.99,1686298951.84375
-43.33,1686298951.859375
-49.90,1686298951.875
-57.00,1686298951.890625
-63.37,1686298951.90625
-67.40,1686298951.921875
-67.48,1686298951.9375
-62.51,1686298951.953125
-52.37,1686298951.96875
-38.03,1686298951.984375
-21.37,1686298952.0
-4.61,1686298952.015625
10.38,1686298952.03125
22.48,1686298952.046875
31.51,1686298952.0625
37.89,1686298952.078125
42.28,1686298952.09375
45.16,1686298952.109375
46.73,1686298952.125
46.91,1686298952.140625
45.67,1686298952.15625
43.13,1686298952.171875
39.72,1686298952.1875
36.11,1686298952.203125
32.90,1686298952.21875
30.50,1686298952.234375
28.90,1686298952.25
27.74,1686298952.265625
26.48,1686298952.28125
24.76,1686298952.296875
22.51,1686298952.3125
19.99,1686298952.328125
17.61,1686298952.34375
15.55,1686298952.359375
13.70,1686298952.375
11.55,1686298952.390625
8.53,1686298952.40625
4.26,1686298952.421875
-1.18,1686298952.4375
-7.31,1686298952.453125
-13.44,1686298952.46875
-18.97,1686298952.484375
-23.59,1686298952.5
-27.32,1686298952.515625
-30.48,1686298952.53125
-33.47,1686298952.546875
-36.70,1686298952.5625
-40.56,1686298952.578125
-45.36,1686298952.59375
-51.20,1686298952.609375
-57.77,1686298952.625
-64.17,1686298952.640625
-69.01,1686298952.65625
-70.60,1686298952.671875
-67.57,1686298952.6875
-59.34,1686298952.703125
-46.43,1686298952.71875
-30.42,1686298952.734375
-13.46,1686298952.75
2.40,1686298952.765625
15.69,1686298952.78125
25.87,1686298952.796875
33.18,1686298952.8125
38.23,1686298952.828125
41.61,1686298952.84375
43.58,1686298952.859375
44.13,1686298952.875
43.19,1686298952.890625
40.92,1686298952.90625
37.77,1686298952.921875
34.47,1686298952.9375
31.69,1686298952.953125
29.81,1686298952.96875
28.75,1686298952.984375
28.06,1686298953.0
27.23,1686298953.015625
25.91,1686298953.03125
24.05,1686298953.046875
21.87,1686298953.0625
19.63,1686298953.078125
17.48,1686298953.09375
15.35,1686298953.109375
12.99,1686298953.125
10.14,1686298953.140625
6.63,1686298953.15625
2.46,1686298953.171875
-2.22,1686298953.1875
-7.13,1686298953.203125
-11.96,1686298953.21875
-16.43,1686298953.234375
-20.31,1686298953.25
-23.52,1686298953.265625
-26.17,1686298953.28125
-28.59,1686298953.296875
-31.28,1686298953.3125
-34.79,1686298953.328125
-39.58,1686298953.34375
-45.76,1686298953.359375
-52.94,1686298953.375
-60.14,1686298953.390625
-65.85,1686298953.40625
-68.36,1686298953.421875
-66.25,1686298953.4375
-58.86,1686298953.453125
-46.58,1686298953.46875
-30.86,1686298953.484375
-13.78,1686298953.5
2.48,1686298953.515625
16.34,1686298953.53125
26.98,1686298953.546875
34.40,1686298953.5625
39.15,1686298953.578125
41.87,1686298953.59375
43.10,1686298953.609375
43.13,1686298953.625
42.13,1686298953.640625
40.25,1686298953.65625
37.71,1686298953.671875
34.88,1686298953.6875
32.13,1686298953.703125
29.76,1686298953.71875
27.88,1686298953.734375
26.37,1686298953.75
24.96,1686298953.765625
23.38,1686298953.78125
21.47,1686298953.796875
19.31,1686298953.8125
17.12,1686298953.828125
15.12,1686298953.84375
13.37,1686298953.859375
11.66,1686298953.875
9.61,1686298953.890625
6.82,1686298953.90625
3.07,1686298953.921875
-1.51,1686298953.9375
-6.52,1686298953.953125
-11.37,1686298953.96875
-15.57,1686298953.984375
-18.88,1686298954.0
-21.42,1686298954.015625
-23.56,1686298954.03125
-25.83,1686298954.046875
-28.72,1686298954.0625
-32.59,1686298954.078125
-37.59,1686298954.09375
-43.58,1686298954.109375
-49.96,1686298954.125
-55.68,1686298954.140625
-59.28,1686298954.15625
-59.21,1686298954.171875
-54.35,1686298954.1875
-44.54,1686298954.203125
-30.72,1686298954.21875
-14.75,1686298954.234375
1.12,1686298954.25
15.04,1686298954.265625
25.91,1686298954.28125
33.60,1686298954.296875
38.61,1686298954.3125
41.59,1686298954.328125
43.00,1686298954.34375
43.01,1686298954.359375
41.60,1686298954.375
38.88,1686298954.390625
35.24,1686298954.40625
31.35,1686298954.421875
28.00,1686298954.4375
25.77,1686298954.453125
24.84,1686298954.46875
24.87,1686298954.484375
25.22,1686298954.5
25.23,1686298954.515625
24.50,1686298954.53125
23.04,1686298954.546875
21.16,1686298954.5625
19.25,1686298954.578125
17.46,1686298954.59375
15.60,1686298954.609375
13.13,1686298954.625
9.53,1686298954.640625
4.49,1686298954.65625
-1.79,1686298954.671875
-8.65,1686298954.6875
-15.27,1686298954.703125
-20.92,1686298954.71875
-25.29,1686298954.734375
-28.58,1686298954.75
-31.29,1686298954.765625
-34.08,1686298954.78125
-37.53,1686298954.796875
-41.95,1686298954.8125
-47.43,1686298954.828125
-53.70,1686298954.84375
-60.08,1686298954.859375
-65.45,1686298954.875
-68.36,1686298954.890625
-67.36,1686298954.90625
-61.55,1686298954.921875
-50.93,1686298954.9375
-36.59,1686298954.953125
-20.41,1686298954.96875
-4.48,1686298954.984375
9.53,1686298955.0
20.74,1686298955.015625
29.12,1686298955.03125
35.10,1686298955.046875
39.22,1686298955.0625
41.80,1686298955.078125
42.89,1686298955.09375
42.45,1686298955.109375
40.56,1686298955.125
37.59,1686298955.140625
34.14,1686298955.15625
30.87,1686298955.171875
28.26,1686298955.1875
26.48,1686298955.203125
25.38,1686298955.21875
24.63,1686298955.234375
23.89,1686298955.25
23.00,1686298955.265625
21.93,1686298955.28125
20.75,1686298955.296875
19.58,1686298955.3125
18.44,1686298955.328125
17.25,1686298955.34375
15.84,1686298955.359375
13.98,1686298955.375
11.46,1686298955.390625
8.18,1686298955.40625
4.20,1686298955.421875
-0.24,1686298955.4375
-4.70,1686298955.453125
-8.75,1686298955.46875
-12.08,1686298955.484375
-14.66,1686298955.5
-16.73,1686298955.515625
-18.74,1686298955.53125
-21.18,1686298955.546875
-24.52,1686298955.5625
-29.07,1686298955.578125
-34.87,1686298955.59375
-41.53,1686298955.609375
-48.12,1686298955.625
-53.13,1686298955.640625
-54.87,1686298955.65625
-51.97,1686298955.671875
-43.99,1686298955.6875
-31.64,1686298955.703125
-16.69,1686298955.71875
-1.30,1686298955.734375
12.65,1686298955.75
24.05,1686298955.765625
32.72,1686298955.78125
39.07,1686298955.796875
43.67,1686298955.8125
46.92,1686298955.828125
48.97,1686298955.84375
49.82,1686298955.859375
49.58,1686298955.875
48.56,1686298955.890625
47.21,1686298955.90625
46.07,1686298955.921875
45.53,1686298955.9375
45.78,1686298955.953125
46.70,1686298955.96875
48.04,1686298955.984375
49.49,1686298956.0
50.81,1686298956.015625
51.90,1686298956.03125
52.73,1686298956.046875
53.27,1686298956.0625
53.37,1686298956.078125
52.80,1686298956.09375
51.30,1686298956.109375
48.60,1686298956.125
44.56,1686298956.140625
39.04,1686298956.15625
31.95,1686298956.171875
23.24,1686298956.1875
12.98,1686298956.203125
1.39,1686298956.21875
-11.09,1686298956.234375
-23.79,1686298956.25
-36.02,1686298956.265625
-47.15,1686298956.28125
-56.78,1686298956.296875
-64.84,1686298956.3125
-71.49,1686298956.328125
-77.17,1686298956.34375
-82.40,1686298956.359375
-87.59,1686298956.375
-92.72,1686298956.390625
-97.16,1686298956.40625
-99.64,1686298956.421875
-98.61,1686298956.4375
-92.83,1686298956.453125
-81.93,1686298956.46875
-66.73,1686298956.484375
-49.07,1686298956.5
-31.27,1686298956.515625
-15.37,1686298956.53125
-2.55,1686298956.546875
6.97,1686298956.5625
13.72,1686298956.578125
18.46,1686298956.59375
21.81,1686298956.609375
24.03,1686298956.625
25.12,1686298956.640625
25.05,1686298956.65625
23.94,1686298956.671875
22.16,1686298956.6875
20.14,1686298956.703125
18.36,1686298956.71875
17.18,1686298956.734375
16.82,1686298956.75
17.40,1686298956.765625
18.88,1686298956.78125
21.10,1686298956.796875
23.66,1686298956.8125
25.92,1686298956.828125
27.13,1686298956.84375
26.59,1686298956.859375
23.96,1686298956.875
19.39,1686298956.890625
13.55,1686298956.90625
7.35,1686298956.921875
1.65,1686298956.9375
-3.08,1686298956.953125
-6.84,1686298956.96875
-10.02,1686298956.984375
-13.13,1686298957.0
-16.55,1686298957.015625
-20.44,1686298957.03125
-24.69,1686298957.046875
-29.15,1686298957.0625
-33.68,1686298957.078125
-38.27,1686298957.09375
-42.94,1686298957.109375
-47.64,1686298957.125
-52.11,1686298957.140625
-55.78,1686298957.15625
-57.84,1686298957.171875
-57.29,1686298957.1875
-53.29,1686298957.203125
-45.39,1686298957.21875
-33.85,1686298957.234375
-19.67,1686298957.25
-4.43,1686298957.265625
10.12,1686298957.28125
22.53,1686298957.296875
31.95,1686298957.3125
38.28,1686298957.328125
41.93,1686298957.34375
43.58,1686298957.359375
43.90,1686298957.375
43.39,1686298957.390625
42.40,1686298957.40625
41.15,1686298957.421875
39.86,1686298957.4375
38.72,1686298957.453125
37.92,1686298957.46875
37.58,1686298957.484375
37.69,1686298957.5
38.07,1686298957.515625
38.38,1686298957.53125
38.20,1686298957.546875
37.14,1686298957.5625
35.05,1686298957.578125
32.00,1686298957.59375
28.37,1686298957.609375
24.63,1686298957.625
21.24,1686298957.640625
18.42,1686298957.65625
16.12,1686298957.671875
14.01,1686298957.6875
11.74,1686298957.703125
9.06,1686298957.71875
5.93,1686298957.734375
2.50,1686298957.75
-1.04,1686298957.765625
-4.62,1686298957.78125
-8.29,1686298957.796875
-12.24,1686298957.8125
-16.72,1686298957.828125
-22.02,1686298957.84375
-28.44,1686298957.859375
-36.29,1686298957.875
-45.61,1686298957.890625
-55.93,1686298957.90625
-66.04,1686298957.921875
-74.15,1686298957.9375
-78.36,1686298957.953125
-77.36,1686298957.96875
-71.03,1686298957.984375
-60.54,1686298958.0
-47.95,1686298958.015625
-35.41,1686298958.03125
-24.52,1686298958.046875
-15.99,1686298958.0625
-9.73,1686298958.078125
-5.22,1686298958.09375
-2.00,1686298958.109375
0.18,1686298958.125
1.38,1686298958.140625
1.65,1686298958.15625
1.21,1686298958.171875
0.49,1686298958.1875
-0.02,1686298958.203125
0.09,1686298958.21875
0.91,1686298958.234375
2.18,1686298958.25
3.40,1686298958.265625
4.06,1686298958.28125
3.91,1686298958.296875
3.10,1686298958.3125
2.06,1686298958.328125
1.32,1686298958.34375
1.16,1686298958.359375
1.50,1686298958.375
1.89,1686298958.390625
1.79,1686298958.40625
0.79,1686298958.421875
-1.11,1686298958.4375
-3.55,1686298958.453125
-5.99,1686298958.46875
-7.94,1686298958.484375
-9.29,1686298958.5
-10.31,1686298958.515625
-11.56,1686298958.53125
-13.72,1686298958.546875
-17.31,1686298958.5625
-22.63,1686298958.578125
-29.57,1686298958.59375
-37.64,1686298958.609375
-45.93,1686298958.625
-53.14,1686298958.640625
-57.72,1686298958.65625
-58.21,1686298958.671875
-53.67,1686298958.6875
-44.02,1686298958.703125
-30.26,1686298958.71875
-14.18,1686298958.734375
2.09,1686298958.75
16.66,1686298958.765625
28.37,1686298958.78125
36.92,1686298958.796875
42.66,1686298958.8125
46.29,1686298958.828125
48.38,1686298958.84375
49.27,1686298958.859375
49.03,1686298958.875
47.68,1686298958.890625
45.39,1686298958.90625
42.57,1686298958.921875
39.82,1686298958.9375
37.64,1686298958.953125
36.27,1686298958.96875
35.60,1686298958.984375
35.22,1686298959.0
34.71,1686298959.015625
33.82,1686298959.03125
32.60,1686298959.046875
31.30,1686298959.0625
30.12,1686298959.078125
29.04,1686298959.09375
27.68,1686298959.109375
25.46,1686298959.125
21.85,1686298959.140625
16.67,1686298959.15625
10.22,1686298959.171875
3.24,1686298959.1875
-3.38,1686298959.203125
-8.96,1686298959.21875
-13.26,1686298959.234375
-16.53,1686298959.25
-19.41,1686298959.265625
-22.64,1686298959.28125
-26.82,1686298959.296875
-32.26,1686298959.3125
-38.87,1686298959.328125
-46.10,1686298959.34375
-52.96,1686298959.359375
-58.07,1686298959.375
-59.94,1686298959.390625
-57.36,1686298959.40625
-49.83,1686298959.421875
-37.85,1686298959.4375
-22.86,1686298959.453125
-6.92,1686298959.46875
8.00,1686298959.484375
20.46,1686298959.5
29.89,1686298959.515625
36.49,1686298959.53125
40.83,1686298959.546875
43.49,1686298959.5625
44.80,1686298959.578125
44.81,1686298959.59375
43.56,1686298959.609375
41.24,1686298959.625
38.30,1686298959.640625
35.36,1686298959.65625
33.00,1686298959.671875
31.47,1686298959.6875
30.63,1686298959.703125
30.06,1686298959.71875
29.27,1686298959.734375
27.94,1686298959.75
26.08,1686298959.765625
23.91,1686298959.78125
21.75,1686298959.796875
19.78,1686298959.8125
17.87,1686298959.828125
15.66,1686298959.84375
12.67,1686298959.859375
8.53,1686298959.875
3.21,1686298959.890625
-2.94,1686298959.90625
-9.28,1686298959.921875
-15.09,1686298959.9375
-19.88,1686298959.953125
-23.53,1686298959.96875
-26.38,1686298959.984375
-29.05,1686298960.0
-32.22,1686298960.015625
-36.45,1686298960.03125
-41.97,1686298960.046875
-48.61,1686298960.0625
-55.69,1686298960.078125
-62.06,1686298960.09375
-66.16,1686298960.109375
-66.44,1686298960.125
-61.83,1686298960.140625
-52.23,1686298960.15625
-38.63,1686298960.171875
-22.89,1686298960.1875
-7.17,1686298960.203125
6.79,1686298960.21875
18.07,1686298960.234375
26.60,1686298960.25
32.86,1686298960.265625
37.42,1686298960.28125
40.57,1686298960.296875
42.34,1686298960.3125
42.61,1686298960.328125
41.41,1686298960.34375
39.08,1686298960.359375
36.21,1686298960.375
33.44,1686298960.390625
31.25,1686298960.40625
29.75,1686298960.421875
28.76,1686298960.4375
27.87,1686298960.453125
26.73,1686298960.46875
25.21,1686298960.484375
23.42,1686298960.5
21.63,1686298960.515625
20.08,1686298960.53125
18.77,1686298960.546875
17.44,1686298960.5625
15.67,1686298960.578125
13.00,1686298960.59375
9.19,1686298960.609375
4.35,1686298960.625
-1.07,1686298960.640625
-6.42,1686298960.65625
-11.07,1686298960.671875
-14.68,1686298960.6875
-17.36,1686298960.703125
-19.54,1686298960.71875
-21.91,1686298960.734375
-25.11,1686298960.75
-29.52,1686298960.765625
-35.11,1686298960.78125
-41.38,1686298960.796875
-47.34,1686298960.8125
-51.65,1686298960.828125
-52.92,1686298960.84375
-50.05,1686298960.859375
-42.67,1686298960.875
-31.36,1686298960.890625
-17.55,1686298960.90625
-3.11,1686298960.921875
10.22,1686298960.9375
21.30,1686298960.953125
29.74,1686298960.96875
35.76,1686298960.984375
39.78,1686298961.0
42.11,1686298961.015625
42.82,1686298961.03125
41.93,1686298961.046875
39.53,1686298961.0625
36.06,1686298961.078125
32.16,1686298961.09375
28.56,1686298961.109375
25.79,1686298961.125
24.03,1686298961.140625
23.07,1686298961.15625
22.46,1686298961.171875
21.74,1686298961.1875
20.59,1686298961.203125
19.00,1686298961.21875
17.16,1686298961.234375
15.38,1686298961.25
13.82,1686298961.265625
12.35,1686298961.28125
10.61,1686298961.296875
8.08,1686298961.3125
4.43,1686298961.328125
-0.33,1686298961.34375
-5.76,1686298961.359375
-11.15,1686298961.375
-15.82,1686298961.390625
-19.41,1686298961.40625
-22.01,1686298961.421875
-24.16,1686298961.4375
-26.60,1686298961.453125
-30.07,1686298961.46875
-35.01,1686298961.484375
-41.43,1686298961.5
-48.89,1686298961.515625
-56.47,1686298961.53125
-62.87,1686298961.546875
-66.63,1686298961.5625
-66.49,1686298961.578125
-61.78,1686298961.59375
-52.66,1686298961.609375
-40.17,1686298961.625
-25.96,1686298961.640625
-11.89,1686298961.65625
0.52,1686298961.671875
10.36,1686298961.6875
17.52,1686298961.703125
22.46,1686298961.71875
25.89,1686298961.734375
28.39,1686298961.75
30.22,1686298961.765625
31.33,1686298961.78125
31.50,1686298961.796875
30.67,1686298961.8125
29.04,1686298961.828125
27.08,1686298961.84375
25.31,1686298961.859375
24.09,1686298961.875
23.42,1686298961.890625
23.02,1686298961.90625
22.57,1686298961.921875
21.84,1686298961.9375
20.94,1686298961.953125
20.18,1686298961.96875
19.83,1686298961.984375
19.92,1686298962.0
20.10,1686298962.015625
19.76,1686298962.03125
18.24,1686298962.046875
15.18,1686298962.0625
10.64,1686298962.078125
5.09,1686298962.09375
-0.79,1686298962.109375
-6.38,1686298962.125
-11.36,1686298962.140625
-15.71,1686298962.15625
-19.68,1686298962.171875
-23.67,1686298962.1875
-28.06,1686298962.203125
-33.21,1686298962.21875
-39.29,1686298962.234375
-46.24,1686298962.25
-53.49,1686298962.265625
-59.93,1686298962.28125
-63.99,1686298962.296875
-64.13,1686298962.3125
-59.34,1686298962.328125
-49.64,1686298962.34375
-36.18,1686298962.359375
-20.90,1686298962.375
-5.94,1686298962.390625
7.01,1686298962.40625
17.15,1686298962.421875
24.52,1686298962.4375
29.70,1686298962.453125
33.33,1686298962.46875
35.80,1686298962.484375
37.19,1686298962.5
37.37,1686298962.515625
36.35,1686298962.53125
34.35,1686298962.546875
31.86,1686298962.5625
29.47,1686298962.578125
27.64,1686298962.59375
26.59,1686298962.609375
26.17,1686298962.625
26.06,1686298962.640625
25.88,1686298962.65625
25.39,1686298962.671875
24.50,1686298962.6875
23.31,1686298962.703125
21.96,1686298962.71875
20.58,1686298962.734375
19.28,1686298962.75
18.06,1686298962.765625
16.86,1686298962.78125
15.51,1686298962.796875
13.75,1686298962.8125
11.33,1686298962.828125
8.07,1686298962.84375
4.05,1686298962.859375
-0.42,1686298962.875
-4.89,1686298962.890625
-8.96,1686298962.90625
-12.52,1686298962.921875
-15.88,1686298962.9375
-19.67,1686298962.953125
-24.60,1686298962.96875
-31.19,1686298962.984375
-39.37,1686298963.0
-48.38,1686298963.015625
-56.80,1686298963.03125
-62.87,1686298963.046875
-64.96,1686298963.0625
-62.06,1686298963.078125
-54.12,1686298963.09375
-42.05,1686298963.109375
-27.55,1686298963.125
-12.50,1686298963.140625
1.46,1686298963.15625
13.36,1686298963.171875
22.96,1686298963.1875
30.49,1686298963.203125
36.43,1686298963.21875
41.12,1686298963.234375
44.66,1686298963.25
46.96,1686298963.265625
47.97,1686298963.28125
47.86,1686298963.296875
47.04,1686298963.3125
46.12,1686298963.328125
45.61,1686298963.34375
45.76,1686298963.359375
46.44,1686298963.375
47.26,1686298963.390625
47.82,1686298963.40625
47.96,1686298963.421875
47.80,1686298963.4375
47.68,1686298963.453125
47.88,1686298963.46875
48.37,1686298963.484375
48.69,1686298963.5
48.05,1686298963.515625
45.64,1686298963.53125
40.99,1686298963.546875
34.20,1686298963.5625
25.95,1686298963.578125
17.17,1686298963.59375
8.74,1686298963.609375
1.03,1686298963.625
-6.14,1686298963.640625
-13.37,1686298963.65625
-21.38,1686298963.671875
-30.68,1686298963.6875
-41.43,1686298963.703125
-53.44,1686298963.71875
-66.23,1686298963.734375
-79.04,1686298963.75
-90.83,1686298963.765625
-100.21,1686298963.78125
-105.68,1686298963.796875
-106.03,1686298963.8125
-100.82,1686298963.828125
-90.70,1686298963.84375
-77.33,1686298963.859375
-62.84,1686298963.875
-49.15,1686298963.890625
-37.36,1686298963.90625
-27.66,1686298963.921875
-19.65,1686298963.9375
-12.80,1686298963.953125
-6.90,1686298963.96875
-2.11,1686298963.984375
1.30,1686298964.0
3.27,1686298964.015625
4.16,1686298964.03125
4.59,1686298964.046875
5.26,1686298964.0625
6.53,1686298964.078125
8.36,1686298964.09375
10.39,1686298964.109375
12.18,1686298964.125
13.51,1686298964.140625
14.45,1686298964.15625
15.35,1686298964.171875
16.51,1686298964.1875
18.03,1686298964.203125
19.64,1686298964.21875
20.75,1686298964.234375
20.69,1686298964.25
19.00,1686298964.265625
15.63,1686298964.28125
11.03,1686298964.296875
5.96,1686298964.3125
1.19,1686298964.328125
-2.75,1686298964.34375
-5.81,1686298964.359375
-8.34,1686298964.375
-10.89,1686298964.390625
-13.99,1686298964.40625
-18.01,1686298964.421875
-23.06,1686298964.4375
-28.97,1686298964.453125
-35.17,1686298964.46875
-40.66,1686298964.484375
-44.13,1686298964.5
-44.24,1686298964.515625
-40.05,1686298964.53125
-31.48,1686298964.546875
-19.43,1686298964.5625
-5.60,1686298964.578125
8.08,1686298964.59375
20.04,1686298964.609375
29.54,1686298964.625
36.57,1686298964.640625
41.59,1686298964.65625
45.10,1686298964.671875
47.31,1686298964.6875
48.11,1686298964.703125
47.32,1686298964.71875
44.95,1686298964.734375
41.32,1686298964.75
37.05,1686298964.765625
32.77,1686298964.78125
28.99,1686298964.796875
25.79,1686298964.8125
22.98,1686298964.828125
20.21,1686298964.84375
17.25,1686298964.859375
14.04,1686298964.875
10.79,1686298964.890625
7.81,1686298964.90625
5.31,1686298964.921875
3.27,1686298964.9375
1.39,1686298964.953125
-0.77,1686298964.96875
-3.65,1686298964.984375
-7.45,1686298965.0
-12.09,1686298965.015625
-17.15,1686298965.03125
-22.10,1686298965.046875
-26.47,1686298965.0625
-29.98,1686298965.078125
-32.72,1686298965.09375
-35.03,1686298965.109375
-37.44,1686298965.125
-40.47,1686298965.140625
-44.50,1686298965.15625
-49.61,1686298965.171875
-55.47,1686298965.1875
-61.25,1686298965.203125
-65.69,1686298965.21875
-67.33,1686298965.234375
-64.98,1686298965.25
-58.08,1686298965.265625
-47.01,1686298965.28125
-33.04,1686298965.296875
-17.97,1686298965.3125
-3.62,1686298965.328125
8.73,1686298965.34375
18.49,1686298965.359375
25.80,1686298965.375
31.15,1686298965.390625
35.06,1686298965.40625
37.86,1686298965.421875
39.62,1686298965.4375
40.29,1686298965.453125
39.92,1686298965.46875
38.75,1686298965.484375
37.20,1686298965.5
35.76,1686298965.515625
34.72,1686298965.53125
34.13,1686298965.546875
33.74,1686298965.5625
33.21,1686298965.578125
32.27,1686298965.59375
30.77,1686298965.609375
28.76,1686298965.625
26.40,1686298965.640625
23.79,1686298965.65625
20.94,1686298965.671875
17.72,1686298965.6875
13.91,1686298965.703125
9.33,1686298965.71875
3.97,1686298965.734375
-1.98,1686298965.75
-8.09,1686298965.765625
-13.84,1686298965.78125
-18.77,1686298965.796875
-22.65,1686298965.8125
-25.65,1686298965.828125
-28.23,1686298965.84375
-31.05,1686298965.859375
-34.68,1686298965.875
-39.45,1686298965.890625
-45.29,1686298965.90625
-51.66,1686298965.921875
-57.59,1686298965.9375
-61.79,1686298965.953125
-62.96,1686298965.96875
-60.11,1686298965.984375
-52.93,1686298966.0
-41.94,1686298966.015625
-28.46,1686298966.03125
-14.19,1686298966.046875
-0.72,1686298966.0625
10.85,1686298966.078125
20.20,1686298966.09375
27.53,1686298966.109375
33.32,1686298966.125
37.92,1686298966.140625
41.41,1686298966.15625
43.62,1686298966.171875
44.34,1686298966.1875
43.57,1686298966.203125
41.63,1686298966.21875
39.10,1686298966.234375
36.62,1686298966.25
34.61,1686298966.265625
33.17,1686298966.28125
32.10,1686298966.296875
31.01,1686298966.3125
29.62,1686298966.328125
27.84,1686298966.34375
25.81,1686298966.359375
23.77,1686298966.375
21.88,1686298966.390625
20.09,1686298966.40625
18.10,1686298966.421875
15.55,1686298966.4375
12.17,1686298966.453125
8.00,1686298966.46875
3.40,1686298966.484375
-1.06,1686298966.5
-4.77,1686298966.515625
-7.43,1686298966.53125
-9.12,1686298966.546875
-10.29,1686298966.5625
-11.58,1686298966.578125
-13.62,1686298966.59375
-16.80,1686298966.609375
-21.23,1686298966.625
-26.64,1686298966.640625
-32.37,1686298966.65625
-37.39,1686298966.671875
-40.41,1686298966.6875
-40.16,1686298966.703125
-35.75,1686298966.71875
-27.12,1686298966.734375
-15.08,1686298966.75
-1.20,1686298966.765625
12.71,1686298966.78125
25.18,1686298966.796875
35.42,1686298966.8125
43.35,1686298966.828125
49.31,1686298966.84375
53.71,1686298966.859375
56.74,1686298966.875
58.33,1686298966.890625
58.36,1686298966.90625
56.88,1686298966.921875
54.26,1686298966.9375
51.15,1686298966.953125
48.28,1686298966.96875
46.20,1686298966.984375
45.05,1686298967.0
44.55,1686298967.015625
44.18,1686298967.03125
43.44,1686298967.046875
42.11,1686298967.0625
40.29,1686298967.078125
38.25,1686298967.09375
36.17,1686298967.109375
33.84,1686298967.125
30.74,1686298967.140625
26.21,1686298967.15625
19.84,1686298967.171875
11.73,1686298967.1875
2.53,1686298967.203125
-6.82,1686298967.21875
-15.42,1686298967.234375
-22.71,1686298967.25
-28.57,1686298967.265625
-33.28,1686298967.28125
-37.39,1686298967.296875
-41.54,1686298967.3125
-46.34,1686298967.328125
-52.24,1686298967.34375
-59.27,1686298967.359375
-66.90,1686298967.375
-73.92,1686298967.390625
-78.68,1686298967.40625
-79.48,1686298967.421875
-75.18,1686298967.4375
-65.65,1686298967.453125
-51.93,1686298967.46875
-35.94,1686298967.484375
-19.97,1686298967.5
-5.96,1686298967.515625
4.85,1686298967.53125
12.15,1686298967.546875
16.39,1686298967.5625
18.44,1686298967.578125
19.19,1686298967.59375
19.30,1686298967.609375
19.16,1686298967.625
18.99,1686298967.640625
18.93,1686298967.65625
19.20,1686298967.671875
20.02,1686298967.6875
21.49,1686298967.703125
23.46,1686298967.71875
25.50,1686298967.734375
26.99,1686298967.75
27.35,1686298967.765625
26.19,1686298967.78125
23.41,1686298967.796875
19.08,1686298967.8125
13.45,1686298967.828125
6.81,1686298967.84375
-0.44,1686298967.859375
-7.78,1686298967.875
-14.53,1686298967.890625
-20.05,1686298967.90625
-23.92,1686298967.921875
-26.05,1686298967.9375
-26.72,1686298967.953125
-26.42,1686298967.96875
-25.67,1686298967.984375
-24.91,1686298968.0
-24.42,1686298968.015625
-24.37,1686298968.03125
-24.92,1686298968.046875
-26.27,1686298968.0625
-28.62,1686298968.078125
-32.15,1686298968.09375
-36.79,1686298968.109375
-42.16,1686298968.125
-47.40,1686298968.140625
-51.37,1686298968.15625
-52.94,1686298968.171875
-51.36,1686298968.1875
-46.51,1686298968.203125
-39.02,1686298968.21875
-29.96,1686298968.234375
-20.50,1686298968.25
-11.50,1686298968.265625
-3.35,1686298968.28125
3.93,1686298968.296875
10.48,1686298968.3125
16.36,1686298968.328125
21.52,1686298968.34375
25.77,1686298968.359375
29.04,1686298968.375
31.40,1686298968.390625
33.09,1686298968.40625
34.44,1686298968.421875
35.73,1686298968.4375
37.08,1686298968.453125
38.39,1686298968.46875
39.43,1686298968.484375
39.90,1686298968.5
39.54,1686298968.515625
38.23,1686298968.53125
35.97,1686298968.546875
32.87,1686298968.5625
29.05,1686298968.578125
24.63,1686298968.59375
19.66,1686298968.609375
14.19,1686298968.625
8.29,1686298968.640625
2.14,1686298968.65625
-3.98,1686298968.671875
-9.75,1686298968.6875
-14.84,1686298968.703125
-19.01,1686298968.71875
-22.16,1686298968.734375
-24.38,1686298968.75
-25.83,1686298968.765625
-26.80,1686298968.78125
-27.57,1686298968.796875
-28.43,1686298968.8125
-29.74,1686298968.828125
-31.83,1686298968.84375
-35.02,1686298968.859375
-39.31,1686298968.875
-44.18,1686298968.890625
-48.48,1686298968.90625
-50.57,1686298968.921875
-48.81,1686298968.9375
-42.24,1686298968.953125
-31.07,1686298968.96875
-16.74,1686298968.984375
-1.47,1686298969.0
12.55,1686298969.015625
23.89,1686298969.03125
32.17,1686298969.046875
37.89,1686298969.0625
41.86,1686298969.078125
44.67,1686298969.09375
46.47,1686298969.109375
47.08,1686298969.125
46.34,1686298969.140625
44.36,1686298969.15625
41.58,1686298969.171875
38.63,1686298969.1875
36.06,1686298969.203125
34.12,1686298969.21875
32.82,1686298969.234375
31.92,1686298969.25
31.16,1686298969.265625
30.32,1686298969.28125
29.23,1686298969.296875
27.81,1686298969.3125
26.03,1686298969.328125
23.95,1686298969.34375
21.69,1686298969.359375
19.38,1686298969.375
17.12,1686298969.390625
14.84,1686298969.40625
12.39,1686298969.421875
9.54,1686298969.4375
6.18,1686298969.453125
2.34,1686298969.46875
-1.74,1686298969.484375
-5.74,1686298969.5
-9.39,1686298969.515625
-12.62,1686298969.53125
-15.54,1686298969.546875
-18.43,1686298969.5625
-21.60,1686298969.578125
-25.30,1686298969.59375
-29.73,1686298969.609375
-34.95,1686298969.625
-40.84,1686298969.640625
-46.89,1686298969.65625
-52.22,1686298969.671875
-55.58,1686298969.6875
-55.71,1686298969.703125
-51.82,1686298969.71875
-44.00,1686298969.734375
-33.36,1686298969.75
-21.75,1686298969.765625
-11.19,1686298969.78125
-3.26,1686298969.796875
1.31,1686298969.8125
2.58,1686298969.828125
1.10,1686298969.84375
-2.55,1686298969.859375
-7.89,1686298969.875
-14.58,1686298969.890625
-22.12,1686298969.90625
-29.70,1686298969.921875
-36.22,1686298969.9375
-40.56,1686298969.953125
-41.95,1686298969.96875
-40.30,1686298969.984375
-36.27,1686298970.0
-31.00,1686298970.015625
-25.68,1686298970.03125
-21.20,1686298970.046875
-17.88,1686298970.0625
-15.60,1686298970.078125
-14.03,1686298970.09375
-12.88,1686298970.109375
-12.13,1686298970.125
-11.93,1686298970.140625
-12.45,1686298970.15625
-13.64,1686298970.171875
-15.22,1686298970.1875
-16.70,1686298970.203125
-17.67,1686298970.21875
-17.96,1686298970.234375
-17.74,1686298970.25
-17.42,1686298970.265625
-17.50,1686298970.28125
-18.39,1686298970.296875
-20.35,1686298970.3125
-23.45,1686298970.328125
-27.58,1686298970.34375
-32.28,1686298970.359375
-36.65,1686298970.375
-39.43,1686298970.390625
-39.21,1686298970.40625
-34.98,1686298970.421875
-26.58,1686298970.4375
-14.86,1686298970.453125
-1.46,1686298970.46875
11.77,1686298970.484375
23.40,1686298970.5
32.74,1686298970.515625
39.84,1686298970.53125
45.08,1686298970.546875
48.77,1686298970.5625
50.99,1686298970.578125
51.62,1686298970.59375
50.67,1686298970.609375
48.46,1686298970.625
45.71,1686298970.640625
43.27,1686298970.65625
41.86,1686298970.671875
41.80,1686298970.6875
42.93,1686298970.703125
44.74,1686298970.71875
46.64,1686298970.734375
48.16,1686298970.75
49.07,1686298970.765625
49.36,1686298970.78125
49.13,1686298970.796875
48.44,1686298970.8125
47.19,1686298970.828125
45.21,1686298970.84375
42.32,1686298970.859375
38.43,1686298970.875
33.68,1686298970.890625
28.40,1686298970.90625
23.02,1686298970.921875
18.02,1686298970.9375
13.70,1686298970.953125
10.14,1686298970.96875
7.16,1686298970.984375
4.33,1686298971.0
1.11,1686298971.015625
-2.95,1686298971.03125
-8.14,1686298971.046875
-14.36,1686298971.0625
-21.10,1686298971.078125
-27.34,1686298971.09375
-31.71,1686298971.109375
-32.77,1686298971.125
-29.38,1686298971.140625
-21.16,1686298971.15625
-8.56,1686298971.171875
7.11,1686298971.1875
24.14,1686298971.203125
40.82,1686298971.21875
55.85,1686298971.234375
68.48,1686298971.25
78.48,1686298971.265625
85.94,1686298971.28125
91.02,1686298971.296875
93.94,1686298971.3125
94.80,1686298971.328125
93.73,1686298971.34375
90.88,1686298971.359375
86.48,1686298971.375
80.90,1686298971.390625
74.59,1686298971.40625
68.08,1686298971.421875
61.84,1686298971.4375
56.16,1686298971.453125
51.14,1686298971.46875
46.72,1686298971.484375
42.74,1686298971.5
39.00,1686298971.515625
35.38,1686298971.53125
31.72,1686298971.546875
27.75,1686298971.5625
23.04,1686298971.578125
16.98,1686298971.59375
8.98,1686298971.609375
-1.26,1686298971.625
-13.52,1686298971.640625
-26.99,1686298971.65625
-40.51,1686298971.671875
-52.88,1686298971.6875
-63.34,1686298971.703125
-71.71,1686298971.71875
-78.38,1686298971.734375
-84.07,1686298971.75
-89.51,1686298971.765625
-95.24,1686298971.78125
-101.43,1686298971.796875
-107.78,1686298971.8125
-113.45,1686298971.828125
-117.12,1686298971.84375
-117.12,1686298971.859375
-111.92,1686298971.875
-100.67,1686298971.890625
-83.64,1686298971.90625
-62.26,1686298971.921875
-38.81,1686298971.9375
-15.69,1686298971.953125
5.20,1686298971.96875
22.87,1686298971.984375
37.20,1686298972.0
48.69,1686298972.015625
58.00,1686298972.03125
65.68,1686298972.046875
72.01,1686298972.0625
77.07,1686298972.078125
80.89,1686298972.09375
83.53,1686298972.109375
85.15,1686298972.125
85.99,1686298972.140625
86.20,1686298972.15625
85.76,1686298972.171875
84.54,1686298972.1875
82.30,1686298972.203125
78.91,1686298972.21875
74.46,1686298972.234375
69.22,1686298972.25
63.50,1686298972.265625
57.40,1686298972.28125
50.76,1686298972.296875
43.14,1686298972.3125
34.13,1686298972.328125
23.58,1686298972.34375
11.74,1686298972.359375
-0.76,1686298972.375
-13.13,1686298972.390625
-24.68,1686298972.40625
-34.95,1686298972.421875
-43.81,1686298972.4375
-51.40,1686298972.453125
-57.98,1686298972.46875
-63.91,1686298972.484375
-69.54,1686298972.5
-75.15,1686298972.515625
-80.90,1686298972.53125
-86.61,1686298972.546875
-91.74,1686298972.5625
-95.41,1686298972.578125
-96.72,1686298972.59375
-95.08,1686298972.609375
-90.59,1686298972.625
-84.11,1686298972.640625
-76.97,1686298972.65625
-70.55,1686298972.671875
-65.77,1686298972.6875
-62.82,1686298972.703125
-61.32,1686298972.71875
-60.65,1686298972.734375
-60.32,1686298972.75
-60.20,1686298972.765625
-60.44,1686298972.78125
-61.18,1686298972.796875
-62.39,1686298972.8125
-63.74,1686298972.828125
-64.76,1686298972.84375
-65.10,1686298972.859375
-64.67,1686298972.875
-63.62,1686298972.890625
-62.16,1686298972.90625
-60.26,1686298972.921875
-57.51,1686298972.9375
-53.26,1686298972.953125
-46.89,1686298972.96875
-38.27,1686298972.984375
-27.89,1686298973.0
-16.82,1686298973.015625
-6.33,1686298973.03125
2.57,1686298973.046875
9.32,1686298973.0625
13.96,1686298973.078125
16.82,1686298973.09375
18.22,1686298973.109375
18.26,1686298973.125
16.76,1686298973.140625
13.44,1686298973.15625
8.03,1686298973.171875
0.48,1686298973.1875
-8.97,1686298973.203125
-19.75,1686298973.21875
-30.86,1686298973.234375
-40.90,1686298973.25
-48.18,1686298973.265625
-51.12,1686298973.28125
-48.65,1686298973.296875
-40.63,1686298973.3125
-27.97,1686298973.328125
-12.40,1686298973.34375
4.00,1686298973.359375
19.35,1686298973.375
32.33,1686298973.390625
42.26,1686298973.40625
48.97,1686298973.421875
52.64,1686298973.4375
53.53,1686298973.453125
52.06,1686298973.46875
48.77,1686298973.484375
44.28,1686298973.5
39.26,1686298973.515625
34.31,1686298973.53125
29.85,1686298973.546875
26.02,1686298973.5625
22.82,1686298973.578125
20.16,1686298973.59375
18.00,1686298973.609375
16.32,1686298973.625
15.09,1686298973.640625
14.11,1686298973.65625
13.03,1686298973.671875
11.34,1686298973.6875
8.60,1686298973.703125
4.62,1686298973.71875
-0.36,1686298973.734375
-5.79,1686298973.75
-11.01,1686298973.765625
-15.58,1686298973.78125
-19.43,1686298973.796875
-22.86,1686298973.8125
-26.44,1686298973.828125
-30.82,1686298973.84375
-36.45,1686298973.859375
-43.45,1686298973.875
-51.43,1686298973.890625
-59.36,1686298973.90625
-65.75,1686298973.921875
-68.90,1686298973.9375
-67.47,1686298973.953125
-60.85,1686298973.96875
-49.53,1686298973.984375
-34.96,1686298974.0
-19.13,1686298974.015625
-4.02,1686298974.03125
8.95,1686298974.046875
19.11,1686298974.0625
26.50,1686298974.078125
31.60,1686298974.09375
35.00,1686298974.109375
37.11,1686298974.125
38.08,1686298974.140625
37.85,1686298974.15625
36.38,1686298974.171875
33.82,1686298974.1875
30.61,1686298974.203125
27.35,1686298974.21875
24.59,1686298974.234375
22.56,1686298974.25
21.13,1686298974.265625
19.97,1686298974.28125
18.73,1686298974.296875
17.23,1686298974.3125
15.41,1686298974.328125
13.26,1686298974.34375
10.73,1686298974.359375
7.71,1686298974.375
4.18,1686298974.390625
0.22,1686298974.40625
-3.93,1686298974.421875
-8.07,1686298974.4375
-12.20,1686298974.453125
-16.57,1686298974.46875
-21.65,1686298974.484375
-27.84,1686298974.5
-35.22,1686298974.515625
-43.30,1686298974.53125
-50.96,1686298974.546875
-56.61,1686298974.5625
-58.57,1686298974.578125
-55.58,1686298974.59375
-47.25,1686298974.609375
-34.26,1686298974.625
-18.24,1686298974.640625
-1.31,1686298974.65625
14.52,1686298974.671875
27.81,1686298974.6875
37.97,1686298974.703125
45.05,1686298974.71875
49.54,1686298974.734375
51.99,1686298974.75
52.83,1686298974.765625
52.32,1686298974.78125
50.60,1686298974.796875
47.86,1686298974.8125
44.40,1686298974.828125
40.63,1686298974.84375
37.08,1686298974.859375
34.19,1686298974.875
32.19,1686298974.890625
31.01,1686298974.90625
30.29,1686298974.921875
29.51,1686298974.9375
28.14,1686298974.953125
25.83,1686298974.96875
22.51,1686298974.984375
18.31,1686298975.0
13.53,1686298975.015625
8.48,1686298975.03125
3.38,1686298975.046875
-1.61,1686298975.0625
-6.52,1686298975.078125
-11.43,1686298975.09375
-16.56,1686298975.109375
-22.20,1686298975.125
-28.74,1686298975.140625
-36.37,1686298975.15625
-44.89,1686298975.171875
-53.39,1686298975.1875
-60.26,1686298975.203125
-63.56,1686298975.21875
-61.57,1686298975.234375
-53.56,1686298975.25
-40.13,1686298975.265625
-23.09,1686298975.28125
-4.93,1686298975.296875
12.00,1686298975.3125
26.13,1686298975.328125
36.85,1686298975.34375
44.33,1686298975.359375
49.09,1686298975.375
51.64,1686298975.390625
52.31,1686298975.40625
51.38,1686298975.421875
49.16,1686298975.4375
46.09,1686298975.453125
42.69,1686298975.46875
39.39,1686298975.484375
36.40,1686298975.5
33.78,1686298975.515625
31.49,1686298975.53125
29.48,1686298975.546875
27.73,1686298975.5625
26.23,1686298975.578125
24.81,1686298975.59375
23.13,1686298975.609375
20.80,1686298975.625
17.45,1686298975.640625
13.00,1686298975.65625
7.66,1686298975.671875
1.88,1686298975.6875
-3.83,1686298975.703125
-9.12,1686298975.71875
-13.95,1686298975.734375
-18.53,1686298975.75
-23.30,1686298975.765625
-28.72,1686298975.78125
-35.06,1686298975.796875
-42.29,1686298975.8125
-49.82,1686298975.828125
-56.51,1686298975.84375
-60.80,1686298975.859375
-61.08,1686298975.875
-56.20,1686298975.890625
-45.95,1686298975.90625
-31.28,1686298975.921875
-14.04,1686298975.9375
3.46,1686298975.953125
19.23,1686298975.96875
31.99,1686298975.984375
41.38,1686298976.0
47.68,1686298976.015625
51.44,1686298976.03125
53.15,1686298976.046875
53.08,1686298976.0625
51.44,1686298976.078125
48.49,1686298976.09375
44.69,1686298976.109375
40.60,1686298976.125
36.72,1686298976.140625
33.37,1686298976.15625
30.60,1686298976.171875
28.29,1686298976.1875
26.27,1686298976.203125
24.45,1686298976.21875
22.73,1686298976.234375
20.94,1686298976.25
18.81,1686298976.265625
15.98,1686298976.28125
12.18,1686298976.296875
7.38,1686298976.3125
1.88,1686298976.328125
-3.78,1686298976.34375
-9.06,1686298976.359375
-13.62,1686298976.375
-17.52,1686298976.390625
-21.16,1686298976.40625
-25.20,1686298976.421875
-30.34,1686298976.4375
-37.04,1686298976.453125
-45.32,1686298976.46875
-54.51,1686298976.484375
-63.17,1686298976.5
-69.36,1686298976.515625
-71.10,1686298976.53125
-67.02,1686298976.546875
-56.96,1686298976.5625
-42.13,1686298976.578125
-24.80,1686298976.59375
-7.48,1686298976.609375
7.81,1686298976.625
20.10,1686298976.640625
29.46,1686298976.65625
36.51,1686298976.671875
41.90,1686298976.6875
45.86,1686298976.703125
48.23,1686298976.71875
48.76,1686298976.734375
47.47,1686298976.75
44.87,1686298976.765625
41.75,1686298976.78125
38.92,1686298976.796875
36.84,1686298976.8125
35.44,1686298976.828125
34.26,1686298976.84375
32.78,1686298976.859375
30.71,1686298976.875
28.22,1686298976.890625
25.72,1686298976.90625
23.65,1686298976.921875
22.12,1686298976.9375
20.76,1686298976.953125
18.88,1686298976.96875
15.78,1686298976.984375
11.10,1686298977.0
5.02,1686298977.015625
-1.80,1686298977.03125
-8.52,1686298977.046875
-14.46,1686298977.0625
-19.39,1686298977.078125
-23.52,1686298977.09375
-27.44,1686298977.109375
-31.81,1686298977.125
-37.26,1686298977.140625
-44.13,1686298977.15625
-52.28,1686298977.171875
-61.00,1686298977.1875
-68.87,1686298977.203125
-74.07,1686298977.21875
-74.80,1686298977.234375
-69.96,1686298977.25
-59.54,1686298977.265625
-44.74,1686298977.28125
-27.60,1686298977.296875
-10.27,1686298977.3125
5.56,1686298977.328125
19.02,1686298977.34375
30.00,1686298977.359375
38.75,1686298977.375
45.52,1686298977.390625
50.39,1686298977.40625
53.27,1686298977.421875
54.09,1686298977.4375
53.04,1686298977.453125
50.60,1686298977.46875
47.51,1686298977.484375
44.54,1686298977.5
42.22,1686298977.515625
40.72,1686298977.53125
39.79,1686298977.546875
38.95,1686298977.5625
37.71,1686298977.578125
35.82,1686298977.59375
33.34,1686298977.609375
30.56,1686298977.625
27.79,1686298977.640625
25.16,1686298977.65625
22.54,1686298977.671875
19.58,1686298977.6875
15.88,1686298977.703125
11.20,1686298977.71875
5.62,1686298977.734375
-0.45,1686298977.75
-6.40,1686298977.765625
-11.67,1686298977.78125
-15.98,1686298977.796875
-19.42,1686298977.8125
-22.46,1686298977.828125
-25.69,1686298977.84375
-29.61,1686298977.859375
-34.47,1686298977.875
-40.27,1686298977.890625
-46.80,1686298977.90625
-53.63,1686298977.921875
-60.05,1686298977.9375
-64.94,1686298977.953125
-66.89,1686298977.96875
-64.56,1686298977.984375
-57.15,1686298978.0
-44.91,1686298978.015625
-29.18,1686298978.03125
-12.06,1686298978.046875
4.29,1686298978.0625
18.27,1686298978.078125
29.23,1686298978.09375
37.39,1686298978.109375
43.38,1686298978.125
47.74,1686298978.140625
50.74,1686298978.15625
52.28,1686298978.171875
52.22,1686298978.1875
50.65,1686298978.203125
48.01,1686298978.21875
44.98,1686298978.234375
42.30,1686298978.25
40.42,1686298978.265625
39.40,1686298978.28125
38.94,1686298978.296875
38.54,1686298978.3125
37.77,1686298978.328125
36.48,1686298978.34375
34.71,1686298978.359375
32.65,1686298978.375
30.46,1686298978.390625
28.12,1686298978.40625
25.51,1686298978.421875
22.49,1686298978.4375
19.00,1686298978.453125
15.10,1686298978.46875
10.94,1686298978.484375
6.72,1686298978.5
2.61,1686298978.515625
-1.23,1686298978.53125
-4.71,1686298978.546875
-7.72,1686298978.5625
-10.17,1686298978.578125
-12.05,1686298978.59375
-13.42,1686298978.609375
-14.55,1686298978.625
-15.86,1686298978.640625
-17.88,1686298978.65625
-20.97,1686298978.671875
-25.04,1686298978.6875
-29.33,1686298978.703125
-32.40,1686298978.71875
-32.43,1686298978.734375
-27.80,1686298978.75
-17.70,1686298978.765625
-2.54,1686298978.78125
16.06,1686298978.796875
35.74,1686298978.8125
54.03,1686298978.828125
69.08,1686298978.84375
79.99,1686298978.859375
86.93,1686298978.875
90.78,1686298978.890625
92.67,1686298978.90625
93.57,1686298978.921875
93.95,1686298978.9375
93.68,1686298978.953125
92.22,1686298978.96875
88.85,1686298978.984375
83.03,1686298979.0
74.54,1686298979.015625
63.48,1686298979.03125
50.13,1686298979.046875
34.81,1686298979.0625
17.80,1686298979.078125
-0.62,1686298979.09375
-20.10,1686298979.109375
-40.11,1686298979.125
-60.00,1686298979.140625
-78.99,1686298979.15625
-96.35,1686298979.171875
-111.41,1686298979.1875
-123.55,1686298979.203125
-132.19,1686298979.21875
-136.84,1686298979.234375
-137.21,1686298979.25
-133.46,1686298979.265625
-126.27,1686298979.28125
-116.85,1686298979.296875
-106.72,1686298979.3125
-97.33,1686298979.328125
-89.77,1686298979.34375
-84.61,1686298979.359375
-81.85,1686298979.375
-81.13,1686298979.390625
-81.97,1686298979.40625
-83.92,1686298979.421875
-86.55,1686298979.4375
-89.38,1686298979.453125
-91.68,1686298979.46875
-92.43,1686298979.484375
-90.43,1686298979.5
-84.63,1686298979.515625
-74.51,1686298979.53125
-60.40,1686298979.546875
-43.53,1686298979.5625
-25.69,1686298979.578125
-8.66,1686298979.59375
6.27,1686298979.609375
18.60,1686298979.625
28.50,1686298979.640625
36.46,1686298979.65625
42.88,1686298979.671875
47.87,1686298979.6875
51.28,1686298979.703125
53.00,1686298979.71875
53.17,1686298979.734375
52.30,1686298979.75
51.10,1686298979.765625
50.22,1686298979.78125
50.01,1686298979.796875
50.38,1686298979.8125
50.89,1686298979.828125
51.03,1686298979.84375
50.36,1686298979.859375
48.79,1686298979.875
46.51,1686298979.890625
43.88,1686298979.90625
41.28,1686298979.921875
38.84,1686298979.9375
36.42,1686298979.953125
33.64,1686298979.96875
30.07,1686298979.984375
25.43,1686298980.0
19.77,1686298980.015625
13.45,1686298980.03125
7.05,1686298980.046875
1.14,1686298980.0625
-3.97,1686298980.078125
-8.28,1686298980.09375
-12.08,1686298980.109375
-15.82,1686298980.125
-19.94,1686298980.140625
-24.81,1686298980.15625
-30.65,1686298980.171875
-37.46,1686298980.1875
-44.86,1686298980.203125
-51.94,1686298980.21875
-57.38,1686298980.234375
-59.64,1686298980.25
-57.53,1686298980.265625
-50.65,1686298980.28125
-39.62,1686298980.296875
-25.88,1686298980.3125
-11.29,1686298980.328125
2.53,1686298980.34375
14.50,1686298980.359375
24.22,1686298980.375
31.76,1686298980.390625
37.35,1686298980.40625
41.24,1686298980.421875
43.60,1686298980.4375
44.58,1686298980.453125
44.35,1686298980.46875
43.13,1686298980.484375
41.19,1686298980.5
38.79,1686298980.515625
36.24,1686298980.53125
33.82,1686298980.546875
31.78,1686298980.5625
30.27,1686298980.578125
29.32,1686298980.59375
28.77,1686298980.609375
28.34,1686298980.625
27.70,1686298980.640625
26.60,1686298980.65625
24.95,1686298980.671875
22.83,1686298980.6875
20.43,1686298980.703125
17.94,1686298980.71875
15.38,1686298980.734375
12.61,1686298980.75
9.36,1686298980.765625
5.38,1686298980.78125
0.59,1686298980.796875
-4.86,1686298980.8125
-10.58,1686298980.828125
-16.16,1686298980.84375
-21.26,1686298980.859375
-25.76,1686298980.875
-29.74,1686298980.890625
-33.45,1686298980.90625
-37.25,1686298980.921875
-41.59,1686298980.9375
-46.82,1686298980.953125
-53.09,1686298980.96875
-60.06,1686298980.984375
-66.75,1686298981.0
-71.63,1686298981.015625
-72.98,1686298981.03125
-69.44,1686298981.046875
-60.60,1686298981.0625
-47.22,1686298981.078125
-31.08,1686298981.09375
-14.39,1686298981.109375
0.81,1686298981.125
13.27,1686298981.140625
22.64,1686298981.15625
29.32,1686298981.171875
34.01,1686298981.1875
37.30,1686298981.203125
39.47,1686298981.21875
40.61,1686298981.234375
40.76,1686298981.25
40.11,1686298981.265625
39.03,1686298981.28125
37.92,1686298981.296875
37.09,1686298981.3125
36.59,1686298981.328125
36.27,1686298981.34375
35.98,1686298981.359375
35.63,1686298981.375
35.21,1686298981.390625
34.73,1686298981.40625
34.12,1686298981.421875
33.19,1686298981.4375
31.70,1686298981.453125
29.55,1686298981.46875
26.81,1686298981.484375
23.75,1686298981.5
20.64,1686298981.515625
17.61,1686298981.53125
14.53,1686298981.546875
11.12,1686298981.5625
7.06,1686298981.578125
2.20,1686298981.59375
-3.31,1686298981.609375
-9.14,1686298981.625
-14.86,1686298981.640625
-20.17,1686298981.65625
-24.96,1686298981.671875
-29.37,1686298981.6875
-33.69,1686298981.703125
-38.30,1686298981.71875
-43.58,1686298981.734375
-49.75,1686298981.75
-56.73,1686298981.765625
-63.95,1686298981.78125
-70.28,1686298981.796875
-74.12,1686298981.8125
-73.88,1686298981.828125
-68.53,1686298981.84375
-58.04,1686298981.859375
-43.61,1686298981.875
-27.25,1686298981.890625
-11.21,1686298981.90625
2.81,1686298981.921875
14.00,1686298981.9375
22.45,1686298981.953125
28.77,1686298981.96875
33.56,1686298981.984375
37.10,1686298982.0
39.36,1686298982.015625
40.19,1686298982.03125
39.60,1686298982.046875
37.93,1686298982.0625
35.78,1686298982.078125
33.75,1686298982.09375
32.28,1686298982.109375
31.44,1686298982.125
31.06,1686298982.140625
30.87,1686298982.15625
30.66,1686298982.171875
30.39,1686298982.1875
30.05,1686298982.203125
29.57,1686298982.21875
28.72,1686298982.234375
27.22,1686298982.25
24.83,1686298982.265625
21.56,1686298982.28125
17.66,1686298982.296875
13.53,1686298982.3125
9.46,1686298982.328125
5.53,1686298982.34375
1.58,1686298982.359375
-2.62,1686298982.375
-7.23,1686298982.390625
-12.12,1686298982.40625
-16.99,1686298982.421875
-21.46,1686298982.4375
-25.34,1686298982.453125
-28.66,1686298982.46875
-31.74,1686298982.484375
-35.02,1686298982.5
-38.99,1686298982.515625
-43.98,1686298982.53125
-50.05,1686298982.546875
-56.81,1686298982.5625
-63.30,1686298982.578125
-68.10,1686298982.59375
-69.63,1686298982.609375
-66.61,1686298982.625
-58.60,1686298982.640625
-46.19,1686298982.65625
-30.94,1686298982.671875
-14.91,1686298982.6875
0.04,1686298982.703125
12.66,1686298982.71875
22.55,1686298982.734375
29.97,1686298982.75
35.45,1686298982.765625
39.40,1686298982.78125
41.99,1686298982.796875
43.16,1686298982.8125
42.91,1686298982.828125
41.44,1686298982.84375
39.23,1686298982.859375
36.90,1686298982.875
35.02,1686298982.890625
33.84,1686298982.90625
33.30,1686298982.921875
33.06,1686298982.9375
32.77,1686298982.953125
32.22,1686298982.96875
31.42,1686298982.984375
30.55,1686298983.0
29.73,1686298983.015625
28.96,1686298983.03125
28.02,1686298983.046875
26.59,1686298983.0625
24.37,1686298983.078125
21.30,1686298983.09375
17.52,1686298983.109375
13.47,1686298983.125
9.66,1686298983.140625
6.56,1686298983.15625
4.42,1686298983.171875
3.22,1686298983.1875
2.67,1686298983.203125
2.36,1686298983.21875
1.84,1686298983.234375
0.76,1686298983.25
-1.13,1686298983.265625
-3.85,1686298983.28125
-7.13,1686298983.296875
-10.32,1686298983.3125
-12.34,1686298983.328125
-11.91,1686298983.34375
-7.91,1686298983.359375
0.30,1686298983.375
12.52,1686298983.390625
27.76,1686298983.40625
44.48,1686298983.421875
61.07,1686298983.4375
76.29,1686298983.453125
89.35,1686298983.46875
99.95,1686298983.484375
107.84,1686298983.5
112.74,1686298983.515625
114.14,1686298983.53125
111.62,1686298983.546875
105.09,1686298983.5625
94.99,1686298983.578125
82.34,1686298983.59375
68.39,1686298983.609375
54.34,1686298983.625
41.04,1686298983.640625
28.83,1686298983.65625
17.41,1686298983.671875
5.88,1686298983.6875
-7.19,1686298983.703125
-23.47,1686298983.71875
-44.36,1686298983.734375
-70.34,1686298983.75
-100.50,1686298983.765625
-132.42,1686298983.78125
-162.66,1686298983.796875
-187.59,1686298983.8125
-204.30,1686298983.828125
-211.24,1686298983.84375
-208.39,1686298983.859375
-197.08,1686298983.875
-179.63,1686298983.890625
-158.96,1686298983.90625
-138.09,1686298983.921875
-119.71,1686298983.9375
-105.70,1686298983.953125
-96.80,1686298983.96875
-92.73,1686298983.984375
-92.37,1686298984.0
-94.32,1686298984.015625
-97.15,1686298984.03125
-99.52,1686298984.046875
-100.18,1686298984.0625
-97.90,1686298984.078125
-91.74,1686298984.09375
-81.37,1686298984.109375
-67.32,1686298984.125
-50.94,1686298984.140625
-33.97,1686298984.15625
-17.94,1686298984.171875
-3.69,1686298984.1875
8.77,1686298984.203125
19.93,1686298984.21875
30.27,1686298984.234375
39.86,1686298984.25
48.23,1686298984.265625
54.60,1686298984.28125
58.34,1686298984.296875
59.36,1686298984.3125
58.18,1686298984.328125
55.83,1686298984.34375
53.44,1686298984.359375
51.80,1686298984.375
51.14,1686298984.390625
51.08,1686298984.40625
50.97,1686298984.421875
50.26,1686298984.4375
48.75,1686298984.453125
46.73,1686298984.46875
44.68,1686298984.484375
42.98,1686298984.5
41.62,1686298984.515625
40.20,1686298984.53125
38.06,1686298984.546875
34.68,1686298984.5625
29.96,1686298984.578125
24.27,1686298984.59375
18.36,1686298984.609375
12.95,1686298984.625
8.47,1686298984.640625
4.84,1686298984.65625
1.54,1686298984.671875
-2.17,1686298984.6875
-6.95,1686298984.703125
-13.16,1686298984.71875
-20.78,1686298984.734375
-29.41,1686298984.75
-38.24,1686298984.765625
-46.12,1686298984.78125
-51.69,1686298984.796875
-53.59,1686298984.8125
-50.83,1686298984.828125
-43.22,1686298984.84375
-31.53,1686298984.859375
-17.39,1686298984.875
-2.79,1686298984.890625
10.45,1686298984.90625
21.24,1686298984.921875
29.33,1686298984.9375
35.08,1686298984.953125
39.09,1686298984.96875
41.74,1686298984.984375
43.17,1686298985.0
43.32,1686298985.015625
42.27,1686298985.03125
40.32,1686298985.046875
38.05,1686298985.0625
36.04,1686298985.078125
34.59,1686298985.09375
33.55,1686298985.109375
32.41,1686298985.125
30.54,1686298985.140625
27.54,1686298985.15625
23.51,1686298985.171875
19.01,1686298985.1875
14.80,1686298985.203125
11.44,1686298985.21875
9.06,1686298985.234375
7.28,1686298985.25
5.44,1686298985.265625
2.90,1686298985.28125
-0.58,1686298985.296875
-4.82,1686298985.3125
-9.28,1686298985.328125
-13.31,1686298985.34375
-16.42,1686298985.359375
-18.44,1686298985.375
-19.63,1686298985.390625
-20.49,1686298985.40625
-21.67,1686298985.421875
-23.79,1686298985.4375
-27.25,1686298985.453125
-32.11,1686298985.46875
-37.89,1686298985.484375
-43.60,1686298985.5
-47.82,1686298985.515625
-49.08,1686298985.53125
-46.30,1686298985.546875
-39.15,1686298985.5625
-28.28,1686298985.578125
-15.08,1686298985.59375
-1.27,1686298985.609375
11.67,1686298985.625
22.78,1686298985.640625
31.76,1686298985.65625
38.71,1686298985.671875
43.85,1686298985.6875
47.28,1686298985.703125
48.96,1686298985.71875
48.86,1686298985.734375
47.10,1686298985.75
44.13,1686298985.765625
40.56,1686298985.78125
37.03,1686298985.796875
34.00,1686298985.8125
31.57,1686298985.828125
29.53,1686298985.84375
27.56,1686298985.859375
25.40,1686298985.875
23.05,1686298985.890625
20.70,1686298985.90625
18.64,1686298985.921875
17.01,1686298985.9375
15.73,1686298985.953125
14.43,1686298985.96875
12.67,1686298985.984375
10.13,1686298986.0
6.78,1686298986.015625
2.87,1686298986.03125
-1.12,1686298986.046875
-4.69,1686298986.0625
-7.48,1686298986.078125
-9.45,1686298986.09375
-10.82,1686298986.109375
-12.09,1686298986.125
-13.90,1686298986.140625
-16.82,1686298986.15625
-21.10,1686298986.171875
-26.49,1686298986.1875
-32.09,1686298986.203125
-36.47,1686298986.21875
-37.99,1686298986.234375
-35.37,1686298986.25
-28.05,1686298986.265625
-16.50,1686298986.28125
-2.00,1686298986.296875
13.75,1686298986.3125
29.19,1686298986.328125
43.27,1686298986.34375
55.57,1686298986.359375
66.08,1686298986.375
74.93,1686298986.390625
82.15,1686298986.40625
87.64,1686298986.421875
91.32,1686298986.4375
93.42,1686298986.453125
94.46,1686298986.46875
95.22,1686298986.484375
96.39,1686298986.5
98.32,1686298986.515625
100.82,1686298986.53125
103.20,1686298986.546875
104.59,1686298986.5625
104.25,1686298986.578125
101.91,1686298986.59375
97.86,1686298986.609375
92.84,1686298986.625
87.77,1686298986.640625
83.33,1686298986.65625
79.71,1686298986.671875
76.45,1686298986.6875
72.54,1686298986.703125
66.75,1686298986.71875
58.09,1686298986.734375
46.20,1686298986.75
31.53,1686298986.765625
15.27,1686298986.78125
-1.11,1686298986.796875
-16.34,1686298986.8125
-29.80,1686298986.828125
-41.67,1686298986.84375
-52.85,1686298986.859375
-64.49,1686298986.875
-77.48,1686298986.890625
-92.03,1686298986.90625
-107.36,1686298986.921875
-121.90,1686298986.9375
-133.71,1686298986.953125
-141.14,1686298986.96875
-143.37,1686298986.984375
-140.72,1686298987.0
-134.50,1686298987.015625
-126.52,1686298987.03125
-118.54,1686298987.046875
-111.71,1686298987.0625
-106.49,1686298987.078125
-102.68,1686298987.09375
-99.77,1686298987.109375
-97.25,1686298987.125
-94.73,1686298987.140625
-91.99,1686298987.15625
-88.85,1686298987.171875
-85.05,1686298987.1875
-80.27,1686298987.203125
-74.16,1686298987.21875
-66.58,1686298987.234375
-57.64,1686298987.25
-47.88,1686298987.265625
-38.05,1686298987.28125
-28.87,1686298987.296875
-20.81,1686298987.3125
-13.86,1686298987.328125
-7.67,1686298987.34375
-1.75,1686298987.359375
4.09,1686298987.375
9.66,1686298987.390625
14.32,1686298987.40625
17.32,1686298987.421875
18.16,1686298987.4375
16.87,1686298987.453125
14.06,1686298987.46875
10.65,1686298987.484375
7.59,1686298987.5
5.42,1686298987.515625
4.21,1686298987.53125
3.55,1686298987.546875
2.80,1686298987.5625
1.30,1686298987.578125
-1.54,1686298987.59375
-6.06,1686298987.609375
-12.31,1686298987.625
-19.94,1686298987.640625
-28.02,1686298987.65625
-35.19,1686298987.671875
-39.82,1686298987.6875
-40.45,1686298987.703125
-36.33,1686298987.71875
-27.63,1686298987.734375
-15.49,1686298987.75
-1.68,1686298987.765625
11.98,1686298987.78125
24.10,1686298987.796875
33.96,1686298987.8125
41.56,1686298987.828125
47.29,1686298987.84375
51.61,1686298987.859375
54.80,1686298987.875
56.86,1686298987.890625
57.63,1686298987.90625
57.01,1686298987.921875
55.14,1686298987.9375
52.46,1686298987.953125
49.56,1686298987.96875
46.97,1686298987.984375
44.93,1686298988.0
43.34,1686298988.015625
41.90,1686298988.03125
40.26,1686298988.046875
38.26,1686298988.0625
35.94,1686298988.078125
33.51,1686298988.09375
31.12,1686298988.109375
28.74,1686298988.125
26.16,1686298988.140625
23.08,1686298988.15625
19.28,1686298988.171875
14.77,1686298988.1875
9.76,1686298988.203125
4.61,1686298988.21875
-0.34,1686298988.234375
-4.88,1686298988.25
-8.97,1686298988.265625
-12.75,1686298988.28125
-16.38,1686298988.296875
-20.03,1686298988.3125
-23.84,1686298988.328125
-28.03,1686298988.34375
-32.89,1686298988.359375
-38.71,1686298988.375
-45.54,1686298988.390625
-52.93,1686298988.40625
-59.79,1686298988.421875
-64.50,1686298988.4375
-65.44,1686298988.453125
-61.51,1686298988.46875
-52.68,1686298988.484375
-40.02,1686298988.5
-25.40,1686298988.515625
-10.85,1686298988.53125
2.08,1686298988.546875
12.60,1686298988.5625
20.71,1686298988.578125
26.84,1686298988.59375
31.50,1686298988.609375
34.97,1686298988.625
37.31,1686298988.640625
38.45,1686298988.65625
38.36,1686298988.671875
37.22,1686298988.6875
35.40,1686298988.703125
33.35,1686298988.71875
31.49,1686298988.734375
30.06,1686298988.75
29.08,1686298988.765625
28.36,1686298988.78125
27.68,1686298988.796875
26.83,1686298988.8125
25.69,1686298988.828125
24.26,1686298988.84375
22.59,1686298988.859375
20.69,1686298988.875
18.54,1686298988.890625
15.99,1686298988.90625
12.86,1686298988.921875
9.00,1686298988.9375
4.41,1686298988.953125
-0.69,1686298988.96875
-5.86,1686298988.984375
-10.59,1686298989.0
-14.52,1686298989.015625
-17.61,1686298989.03125
-20.18,1686298989.046875
-22.78,1686298989.0625
-25.99,1686298989.078125
-30.16,1686298989.09375
-35.37,1686298989.109375
-41.38,1686298989.125
-47.68,1686298989.140625
-53.54,1686298989.15625
-57.98,1686298989.171875
-59.85,1686298989.1875
-58.10,1686298989.203125
-52.11,1686298989.21875
-42.02,1686298989.234375
-28.91,1686298989.25
-14.47,1686298989.265625
-0.58,1686298989.28125
11.35,1686298989.296875
20.66,1686298989.3125
27.50,1686298989.328125
32.45,1686298989.34375
36.04,1686298989.359375
38.49,1686298989.375
39.63,1686298989.390625
39.23,1686298989.40625
37.32,1686298989.421875
34.36,1686298989.4375
31.13,1686298989.453125
28.46,1686298989.46875
26.81,1686298989.484375
26.14,1686298989.5
25.98,1686298989.515625
25.65,1686298989.53125
24.69,1686298989.546875
22.96,1686298989.5625
20.71,1686298989.578125
18.34,1686298989.59375
16.16,1686298989.609375
14.18,1686298989.625
12.12,1686298989.640625
9.60,1686298989.65625
6.27,1686298989.671875
2.07,1686298989.6875
-2.78,1686298989.703125
-7.91,1686298989.71875
-12.88,1686298989.734375
-17.45,1686298989.75
-21.58,1686298989.765625
-25.44,1686298989.78125
-29.26,1686298989.796875
-33.27,1686298989.8125
-37.71,1686298989.828125
-42.77,1686298989.84375
-48.64,1686298989.859375
-55.31,1686298989.875
-62.33,1686298989.890625
-68.72,1686298989.90625
-73.01,1686298989.921875
-73.65,1686298989.9375
-69.52,1686298989.953125
-60.44,1686298989.96875
-47.30,1686298989.984375
-31.76,1686298990.0
-15.78,1686298990.015625
-1.04,1686298990.03125
11.48,1686298990.046875
21.46,1686298990.0625
29.10,1686298990.078125
34.84,1686298990.09375
39.06,1686298990.109375
42.00,1686298990.125
43.71,1686298990.140625
44.17,1686298990.15625
43.43,1686298990.171875
41.69,1686298990.1875
39.35,1686298990.203125
36.92,1686298990.21875
34.85,1686298990.234375
33.41,1686298990.25
32.58,1686298990.265625
32.10,1686298990.28125
31.59,1686298990.296875
30.78,1686298990.3125
29.53,1686298990.328125
27.90,1686298990.34375
26.02,1686298990.359375
24.02,1686298990.375
21.87,1686298990.390625
19.38,1686298990.40625
16.29,1686298990.421875
12.35,1686298990.4375
7.52,1686298990.453125
2.04,1686298990.46875
-3.62,1686298990.484375
-8.97,1686298990.5
-13.64,1686298990.515625
-17.59,1686298990.53125
-21.14,1686298990.546875
-24.72,1686298990.5625
-28.84,1686298990.578125
-33.80,1686298990.59375
-39.73,1686298990.609375
-46.53,1686298990.625
-53.82,1686298990.640625
-60.85,1686298990.65625
-66.52,1686298990.671875
-69.44,1686298990.6875
-68.29,1686298990.703125
-62.26,1686298990.71875
-51.48,1686298990.734375
-37.07,1686298990.75
-20.92,1686298990.765625
-5.06,1686298990.78125
8.92,1686298990.796875
20.24,1686298990.8125
28.98,1686298990.828125
35.69,1686298990.84375
40.95,1686298990.859375
44.96,1686298990.875
47.57,1686298990.890625
48.48,1686298990.90625
47.57,1686298990.921875
45.16,1686298990.9375
41.97,1686298990.953125
38.88,1686298990.96875
36.56,1686298990.984375
35.26,1686298991.0
34.72,1686298991.015625
34.44,1686298991.03125
33.88,1686298991.046875
32.81,1686298991.0625
31.22,1686298991.078125
29.30,1686298991.09375
27.24,1686298991.109375
25.04,1686298991.125
22.55,1686298991.140625
19.55,1686298991.15625
15.87,1686298991.171875
11.56,1686298991.1875
6.84,1686298991.203125
2.01,1686298991.21875
-2.71,1686298991.234375
-7.26,1686298991.25
-11.73,1686298991.265625
-16.25,1686298991.28125
-20.86,1686298991.296875
-25.51,1686298991.3125
-30.05,1686298991.328125
-34.46,1686298991.34375
-38.93,1686298991.359375
-43.79,1686298991.375
-49.33,1686298991.390625
-55.48,1686298991.40625
-61.53,1686298991.421875
-66.15,1686298991.4375
-67.72,1686298991.453125
-64.84,1686298991.46875
-56.88,1686298991.484375
-44.32,1686298991.5
-28.62,1686298991.515625
-11.82,1686298991.53125
4.12,1686298991.546875
17.79,1686298991.5625
28.62,1686298991.578125
36.71,1686298991.59375
42.51,1686298991.609375
46.49,1686298991.625
48.85,1686298991.640625
49.63,1686298991.65625
48.83,1686298991.671875
46.63,1686298991.6875
43.49,1686298991.703125
40.02,1686298991.71875
36.81,1686298991.734375
34.24,1686298991.75
32.33,1686298991.765625
30.84,1686298991.78125
29.39,1686298991.796875
27.67,1686298991.8125
25.58,1686298991.828125
23.21,1686298991.84375
20.76,1686298991.859375
18.36,1686298991.875
15.99,1686298991.890625
13.49,1686298991.90625
10.59,1686298991.921875
7.05,1686298991.9375
2.84,1686298991.953125
-1.94,1686298991.96875
-6.97,1686298991.984375
-11.83,1686298992.0
-16.16,1686298992.015625
-19.71,1686298992.03125
-22.52,1686298992.046875
-24.89,1686298992.0625
-27.30,1686298992.078125
-30.24,1686298992.09375
-34.17,1686298992.109375
-39.27,1686298992.125
-45.35,1686298992.140625
-51.81,1686298992.15625
-57.56,1686298992.171875
-61.21,1686298992.1875
-61.39,1686298992.203125
-57.12,1686298992.21875
-48.21,1686298992.234375
-35.45,1686298992.25
-20.45,1686298992.265625
-5.18,1686298992.28125
8.60,1686298992.296875
19.79,1686298992.3125
28.15,1686298992.328125
34.05,1686298992.34375
38.12,1686298992.359375
40.84,1686298992.375
42.36,1686298992.390625
