1686641240.00,timestamp
-0.00,1686641240.0
-0.00,1686641240.015625
-0.00,1686641240.03125
-0.00,1686641240.046875
-0.00,1686641240.0625
-0.00,1686641240.078125
-0.00,1686641240.09375
-0.00,1686641240.109375
-0.00,1686641240.125
-0.00,1686641240.140625
0.00,1686641240.15625
0.01,1686641240.171875
0.01,1686641240.1875
-0.00,1686641240.203125
-0.03,1686641240.21875
-0.05,1686641240.234375
-0.05,1686641240.25
0.00,1686641240.265625
0.13,1686641240.28125
0.36,1686641240.296875
0.66,1686641240.3125
1.01,1686641240.328125
1.37,1686641240.34375
1.72,1686641240.359375
2.06,1686641240.375
2.40,1686641240.390625
2.79,1686641240.40625
3.24,1686641240.421875
3.80,1686641240.4375
4.42,1686641240.453125
5.06,1686641240.46875
5.66,1686641240.484375
6.20,1686641240.5
6.68,1686641240.515625
7.15,1686641240.53125
7.68,1686641240.546875
8.31,1686641240.5625
9.14,1686641240.578125
10.09,1686641240.59375
11.04,1686641240.609375
11.88,1686641240.625
12.56,1686641240.640625
13.14,1686641240.65625
13.76,1686641240.671875
14.65,1686641240.6875
15.96,1686641240.703125
17.91,1686641240.71875
20.32,1686641240.734375
22.90,1686641240.75
25.38,1686641240.765625
27.58,1686641240.78125
29.57,1686641240.796875
31.68,1686641240.8125
34.32,1686641240.828125
37.81,1686641240.84375
42.54,1686641240.859375
48.15,1686641240.875
54.10,1686641240.890625
59.83,1686641240.90625
64.97,1686641240.921875
69.58,1686641240.9375
74.14,1686641240.953125
79.34,1686641240.96875
85.71,1686641240.984375
93.76,1686641241.0
103.00,1686641241.015625
112.62,1686641241.03125
121.73,1686641241.046875
129.77,1686641241.0625
136.75,1686641241.078125
143.30,1686641241.09375
150.75,1686641241.109375
157.77,1686641241.125
166.64,1686641241.140625
177.95,1686641241.15625
191.79,1686641241.171875
206.97,1686641241.1875
220.57,1686641241.203125
228.25,1686641241.21875
225.36,1686641241.234375
208.53,1686641241.25
176.87,1686641241.265625
132.76,1686641241.28125
80.05,1686641241.296875
23.07,1686641241.3125
-34.94,1686641241.328125
-92.44,1686641241.34375
-149.16,1686641241.359375
-205.23,1686641241.375
-260.37,1686641241.390625
-313.74,1686641241.40625
-363.87,1686641241.421875
-409.83,1686641241.4375
-450.91,1686641241.453125
-486.51,1686641241.46875
-515.74,1686641241.484375
-537.22,1686641241.5
-549.19,1686641241.515625
-549.92,1686641241.53125
-538.34,1686641241.546875
-514.22,1686641241.5625
-478.76,1686641241.578125
-434.06,1686641241.59375
-382.73,1686641241.609375
-327.38,1686641241.625
-270.24,1686641241.640625
-213.04,1686641241.65625
-157.05,1686641241.671875
-103.34,1686641241.6875
-52.79,1686641241.703125
-6.39,1686641241.71875
34.99,1686641241.734375
70.73,1686641241.75
100.59,1686641241.765625
124.73,1686641241.78125
143.64,1686641241.796875
157.99,1686641241.8125
168.44,1686641241.828125
175.56,1686641241.84375
179.74,1686641241.859375
181.31,1686641241.875
180.56,1686641241.890625
177.84,1686641241.90625
173.56,1686641241.921875
168.07,1686641241.9375
161.70,1686641241.953125
154.65,1686641241.96875
147.06,1686641241.984375
139.04,1686641242.0
130.74,1686641242.015625
122.40,1686641242.03125
114.25,1686641242.046875
106.47,1686641242.0625
99.08,1686641242.078125
91.94,1686641242.09375
84.79,1686641242.109375
77.43,1686641242.125
69.81,1686641242.140625
62.13,1686641242.15625
54.76,1686641242.171875
48.10,1686641242.1875
42.38,1686641242.203125
37.51,1686641242.21875
33.12,1686641242.234375
28.67,1686641242.25
23.74,1686641242.265625
18.24,1686641242.28125
12.50,1686641242.296875
7.08,1686641242.3125
2.57,1686641242.328125
-0.74,1686641242.34375
-3.01,1686641242.359375
-4.73,1686641242.375
-6.50,1686641242.390625
-8.79,1686641242.40625
-11.85,1686641242.421875
-15.73,1686641242.4375
-20.32,1686641242.453125
-25.18,1686641242.46875
-29.33,1686641242.484375
-31.32,1686641242.5
-29.50,1686641242.515625
-22.87,1686641242.53125
-11.65,1686641242.546875
2.40,1686641242.5625
16.61,1686641242.578125
28.32,1686641242.59375
35.94,1686641242.609375
39.43,1686641242.625
39.91,1686641242.640625
38.89,1686641242.65625
37.46,1686641242.671875
35.88,1686641242.6875
33.87,1686641242.703125
31.10,1686641242.71875
27.72,1686641242.734375
24.45,1686641242.75
22.30,1686641242.765625
21.90,1686641242.78125
23.14,1686641242.796875
25.09,1686641242.8125
26.29,1686641242.828125
25.54,1686641242.84375
22.49,1686641242.859375
17.80,1686641242.875
12.89,1686641242.890625
9.15,1686641242.90625
7.28,1686641242.921875
7.02,1686641242.9375
7.37,1686641242.953125
7.22,1686641242.96875
6.01,1686641242.984375
3.91,1686641243.0
1.66,1686641243.015625
0.06,1686641243.03125
-0.47,1686641243.046875
-0.10,1686641243.0625
0.57,1686641243.078125
0.89,1686641243.09375
0.44,1686641243.109375
-0.68,1686641243.125
-2.02,1686641243.140625
-3.06,1686641243.15625
-3.45,1686641243.171875
-3.24,1686641243.1875
-2.74,1686641243.203125
-2.36,1686641243.21875
-2.35,1686641243.234375
-2.67,1686641243.25
-3.04,1686641243.265625
-3.16,1686641243.28125
-2.86,1686641243.296875
-2.18,1686641243.3125
-1.38,1686641243.328125
-0.72,1686641243.34375
-0.40,1686641243.359375
-0.42,1686641243.375
-0.57,1686641243.390625
-0.55,1686641243.40625
-0.02,1686641243.421875
1.22,1686641243.4375
3.18,1686641243.453125
5.70,1686641243.46875
8.47,1686641243.484375
11.18,1686641243.5
13.58,1686641243.515625
15.55,1686641243.53125
17.08,1686641243.546875
18.22,1686641243.5625
19.03,1686641243.578125
19.53,1686641243.59375
19.72,1686641243.609375
19.61,1686641243.625
19.19,1686641243.640625
18.48,1686641243.65625
17.49,1686641243.671875
16.23,1686641243.6875
14.69,1686641243.703125
12.96,1686641243.71875
11.03,1686641243.734375
8.96,1686641243.75
6.85,1686641243.765625
4.66,1686641243.78125
2.32,1686641243.796875
-0.34,1686641243.8125
-3.44,1686641243.828125
-6.98,1686641243.84375
-10.76,1686641243.859375
-14.49,1686641243.875
-17.87,1686641243.890625
-20.70,1686641243.90625
-22.90,1686641243.921875
-24.43,1686641243.9375
-25.21,1686641243.953125
-25.09,1686641243.96875
-24.08,1686641243.984375
-22.39,1686641244.0
-20.56,1686641244.015625
-19.27,1686641244.03125
-19.03,1686641244.046875
-19.93,1686641244.0625
-21.53,1686641244.078125
-23.02,1686641244.09375
-23.64,1686641244.109375
-22.96,1686641244.125
-21.10,1686641244.140625
-18.60,1686641244.15625
-16.14,1686641244.171875
-14.31,1686641244.1875
-13.41,1686641244.203125
-13.47,1686641244.21875
-14.25,1686641244.234375
-15.35,1686641244.25
-16.22,1686641244.265625
-16.37,1686641244.28125
-15.43,1686641244.296875
-13.30,1686641244.3125
-10.23,1686641244.328125
-6.79,1686641244.34375
-3.62,1686641244.359375
-1.23,1686641244.375
0.18,1686641244.390625
0.78,1686641244.40625
0.91,1686641244.421875
0.90,1686641244.4375
0.95,1686641244.453125
1.06,1686641244.46875
1.08,1686641244.484375
0.95,1686641244.5
0.67,1686641244.515625
0.39,1686641244.53125
0.24,1686641244.546875
0.26,1686641244.5625
0.35,1686641244.578125
0.39,1686641244.59375
0.27,1686641244.609375
-0.02,1686641244.625
-0.33,1686641244.640625
-0.45,1686641244.65625
-0.20,1686641244.671875
0.52,1686641244.6875
1.70,1686641244.703125
2.82,1686641244.71875
3.56,1686641244.734375
3.71,1686641244.75
3.27,1686641244.765625
2.42,1686641244.78125
1.48,1686641244.796875
0.78,1686641244.8125
0.53,1686641244.828125
0.82,1686641244.84375
1.52,1686641244.859375
2.53,1686641244.875
3.70,1686641244.890625
4.92,1686641244.90625
6.12,1686641244.921875
7.22,1686641244.9375
8.10,1686641244.953125
8.63,1686641244.96875
8.62,1686641244.984375
7.89,1686641245.0
6.33,1686641245.015625
3.88,1686641245.03125
0.53,1686641245.046875
-3.58,1686641245.0625
-8.24,1686641245.078125
-13.11,1686641245.09375
-17.81,1686641245.109375
-21.90,1686641245.125
-24.97,1686641245.140625
-26.60,1686641245.15625
-26.53,1686641245.171875
-24.69,1686641245.1875
-21.29,1686641245.203125
-16.83,1686641245.21875
-11.93,1686641245.234375
-7.25,1686641245.25
-3.22,1686641245.265625
-0.06,1686641245.28125
2.25,1686641245.296875
3.76,1686641245.3125
4.46,1686641245.328125
4.21,1686641245.34375
2.81,1686641245.359375
0.15,1686641245.375
-3.64,1686641245.390625
-8.13,1686641245.40625
-12.59,1686641245.421875
-16.26,1686641245.4375
-18.52,1686641245.453125
-19.08,1686641245.46875
-18.06,1686641245.484375
-15.90,1686641245.5
-13.15,1686641245.515625
-10.34,1686641245.53125
-7.84,1686641245.546875
-5.90,1686641245.5625
-4.69,1686641245.578125
-4.35,1686641245.59375
-5.00,1686641245.609375
-6.64,1686641245.625
-9.07,1686641245.640625
-11.90,1686641245.65625
-14.63,1686641245.671875
-16.82,1686641245.6875
-18.21,1686641245.703125
-18.83,1686641245.71875
-18.95,1686641245.734375
-18.95,1686641245.75
-19.19,1686641245.765625
-19.87,1686641245.78125
-20.94,1686641245.796875
-22.18,1686641245.8125
-23.25,1686641245.828125
-23.82,1686641245.84375
-23.68,1686641245.859375
-22.80,1686641245.875
-21.39,1686641245.890625
-19.85,1686641245.90625
-18.64,1686641245.921875
-18.13,1686641245.9375
-18.43,1686641245.953125
-19.23,1686641245.96875
-19.88,1686641245.984375
-19.57,1686641246.0
-17.58,1686641246.015625
-13.56,1686641246.03125
-7.64,1686641246.046875
-0.41,1686641246.0625
7.32,1686641246.078125
14.75,1686641246.09375
21.26,1686641246.109375
26.52,1686641246.125
30.39,1686641246.140625
32.87,1686641246.15625
34.03,1686641246.171875
34.01,1686641246.1875
33.04,1686641246.203125
31.45,1686641246.21875
29.59,1686641246.234375
27.77,1686641246.25
26.19,1686641246.265625
24.90,1686641246.28125
23.91,1686641246.296875
23.19,1686641246.3125
22.75,1686641246.328125
22.55,1686641246.34375
22.54,1686641246.359375
22.52,1686641246.375
22.25,1686641246.390625
21.54,1686641246.40625
20.30,1686641246.421875
18.67,1686641246.4375
16.86,1686641246.453125
15.15,1686641246.46875
13.75,1686641246.484375
12.76,1686641246.5
12.20,1686641246.515625
12.02,1686641246.53125
12.13,1686641246.546875
12.37,1686641246.5625
12.53,1686641246.578125
12.29,1686641246.59375
11.35,1686641246.609375
9.49,1686641246.625
6.75,1686641246.640625
3.39,1686641246.65625
-0.14,1686641246.671875
-3.36,1686641246.6875
-5.90,1686641246.703125
-7.55,1686641246.71875
-8.37,1686641246.734375
-8.57,1686641246.75
-8.47,1686641246.765625
-8.33,1686641246.78125
-8.33,1686641246.796875
-8.42,1686641246.8125
-8.34,1686641246.828125
-7.69,1686641246.84375
-6.09,1686641246.859375
-3.32,1686641246.875
0.55,1686641246.890625
5.14,1686641246.90625
9.88,1686641246.921875
14.22,1686641246.9375
17.81,1686641246.953125
20.53,1686641246.96875
22.48,1686641246.984375
23.80,1686641247.0
24.60,1686641247.015625
24.95,1686641247.03125
24.89,1686641247.046875
24.48,1686641247.0625
23.86,1686641247.078125
23.17,1686641247.09375
22.50,1686641247.109375
21.85,1686641247.125
21.16,1686641247.140625
20.38,1686641247.15625
19.55,1686641247.171875
18.77,1686641247.1875
18.19,1686641247.203125
17.88,1686641247.21875
17.84,1686641247.234375
18.00,1686641247.25
18.24,1686641247.265625
18.51,1686641247.28125
18.75,1686641247.296875
18.96,1686641247.3125
19.12,1686641247.328125
19.15,1686641247.34375
18.99,1686641247.359375
18.60,1686641247.375
17.99,1686641247.390625
17.30,1686641247.40625
16.70,1686641247.421875
16.31,1686641247.4375
16.10,1686641247.453125
15.88,1686641247.46875
15.34,1686641247.484375
14.25,1686641247.5
12.55,1686641247.515625
10.45,1686641247.53125
8.34,1686641247.546875
6.60,1686641247.5625
5.45,1686641247.578125
4.85,1686641247.59375
4.57,1686641247.609375
4.30,1686641247.625
3.80,1686641247.640625
2.97,1686641247.65625
1.79,1686641247.671875
0.32,1686641247.6875
-1.33,1686641247.703125
-2.95,1686641247.71875
-4.25,1686641247.734375
-4.82,1686641247.75
-4.30,1686641247.765625
-2.44,1686641247.78125
0.81,1686641247.796875
5.29,1686641247.8125
10.68,1686641247.828125
16.61,1686641247.84375
22.73,1686641247.859375
28.70,1686641247.875
34.28,1686641247.890625
39.30,1686641247.90625
43.62,1686641247.921875
47.11,1686641247.9375
49.60,1686641247.953125
50.82,1686641247.96875
50.44,1686641247.984375
48.20,1686641248.0
43.96,1686641248.015625
37.81,1686641248.03125
30.05,1686641248.046875
21.09,1686641248.0625
11.38,1686641248.078125
1.24,1686641248.09375
-9.08,1686641248.109375
-19.30,1686641248.125
-28.99,1686641248.140625
-37.59,1686641248.15625
-44.38,1686641248.171875
-48.78,1686641248.1875
-50.56,1686641248.203125
-49.97,1686641248.21875
-47.69,1686641248.234375
-44.57,1686641248.25
-41.31,1686641248.265625
-38.25,1686641248.28125
-35.29,1686641248.296875
-32.06,1686641248.3125
-28.09,1686641248.328125
-23.00,1686641248.34375
-16.58,1686641248.359375
-8.79,1686641248.375
0.23,1686641248.390625
10.13,1686641248.40625
20.36,1686641248.421875
30.11,1686641248.4375
38.52,1686641248.453125
44.84,1686641248.46875
48.68,1686641248.484375
50.13,1686641248.5
49.75,1686641248.515625
48.47,1686641248.53125
47.28,1686641248.546875
47.04,1686641248.5625
48.18,1686641248.578125
50.57,1686641248.59375
53.52,1686641248.609375
55.88,1686641248.625
56.40,1686641248.640625
54.08,1686641248.65625
48.58,1686641248.671875
40.33,1686641248.6875
30.40,1686641248.703125
20.19,1686641248.71875
10.98,1686641248.734375
3.64,1686641248.75
-1.46,1686641248.765625
-4.41,1686641248.78125
-5.59,1686641248.796875
-5.53,1686641248.8125
-4.77,1686641248.828125
-3.89,1686641248.84375
-3.33,1686641248.859375
-3.41,1686641248.875
-4.21,1686641248.890625
-5.64,1686641248.90625
-7.45,1686641248.921875
-9.35,1686641248.9375
-11.10,1686641248.953125
-12.52,1686641248.96875
-13.54,1686641248.984375
-14.19,1686641249.0
-14.55,1686641249.015625
-14.75,1686641249.03125
-14.85,1686641249.046875
-14.85,1686641249.0625
-14.63,1686641249.078125
-14.07,1686641249.09375
-13.12,1686641249.109375
-11.81,1686641249.125
-10.32,1686641249.140625
-8.84,1686641249.15625
-7.51,1686641249.171875
-6.34,1686641249.1875
-5.26,1686641249.203125
-4.16,1686641249.21875
-2.96,1686641249.234375
-1.67,1686641249.25
-0.34,1686641249.265625
0.97,1686641249.28125
2.25,1686641249.296875
3.56,1686641249.3125
5.02,1686641249.328125
6.70,1686641249.34375
8.59,1686641249.359375
10.53,1686641249.375
12.23,1686641249.390625
13.35,1686641249.40625
13.60,1686641249.421875
12.81,1686641249.4375
10.97,1686641249.453125
8.14,1686641249.46875
4.41,1686641249.484375
-0.08,1686641249.5
-5.20,1686641249.515625
-10.76,1686641249.53125
-16.49,1686641249.546875
-22.11,1686641249.5625
-27.35,1686641249.578125
-32.04,1686641249.59375
-36.11,1686641249.609375
-39.58,1686641249.625
-42.49,1686641249.640625
-44.80,1686641249.65625
-46.38,1686641249.671875
-47.06,1686641249.6875
-46.67,1686641249.703125
-45.17,1686641249.71875
-42.62,1686641249.734375
-39.24,1686641249.75
-35.28,1686641249.765625
-31.05,1686641249.78125
-26.82,1686641249.796875
-22.84,1686641249.8125
-19.22,1686641249.828125
-16.03,1686641249.84375
-13.25,1686641249.859375
-10.84,1686641249.875
-8.77,1686641249.890625
-7.03,1686641249.90625
-5.60,1686641249.921875
-4.43,1686641249.9375
-3.39,1686641249.953125
-2.31,1686641249.96875
-1.10,1686641249.984375
0.23,1686641250.0
1.49,1686641250.015625
2.44,1686641250.03125
2.94,1686641250.046875
2.98,1686641250.0625
2.72,1686641250.078125
2.39,1686641250.09375
2.08,1686641250.109375
1.74,1686641250.125
1.21,1686641250.140625
0.35,1686641250.15625
-0.84,1686641250.171875
-2.23,1686641250.1875
-3.61,1686641250.203125
-4.85,1686641250.21875
-5.95,1686641250.234375
-7.05,1686641250.25
-8.30,1686641250.265625
-9.85,1686641250.28125
-11.68,1686641250.296875
-13.71,1686641250.3125
-15.75,1686641250.328125
-17.67,1686641250.34375
-19.38,1686641250.359375
-20.93,1686641250.375
-22.47,1686641250.390625
-24.18,1686641250.40625
-26.25,1686641250.421875
-28.69,1686641250.4375
-31.31,1686641250.453125
-33.75,1686641250.46875
-35.54,1686641250.484375
-36.30,1686641250.5
-35.79,1686641250.515625
-34.07,1686641250.53125
-31.29,1686641250.546875
-27.73,1686641250.5625
-23.61,1686641250.578125
-19.13,1686641250.59375
-14.47,1686641250.609375
-9.89,1686641250.625
-5.68,1686641250.640625
-2.17,1686641250.65625
0.43,1686641250.671875
2.06,1686641250.6875
2.83,1686641250.703125
2.96,1686641250.71875
2.71,1686641250.734375
2.31,1686641250.75
1.97,1686641250.765625
1.85,1686641250.78125
2.14,1686641250.796875
2.91,1686641250.8125
4.14,1686641250.828125
5.61,1686641250.84375
6.99,1686641250.859375
7.93,1686641250.875
8.23,1686641250.890625
7.95,1686641250.90625
7.28,1686641250.921875
6.54,1686641250.9375
5.89,1686641250.953125
5.34,1686641250.96875
4.69,1686641250.984375
3.67,1686641251.0
2.08,1686641251.015625
-0.11,1686641251.03125
-2.75,1686641251.046875
-5.56,1686641251.0625
-8.28,1686641251.078125
-10.76,1686641251.09375
-13.01,1686641251.109375
-15.17,1686641251.125
-17.46,1686641251.140625
-20.07,1686641251.15625
-23.14,1686641251.171875
-26.61,1686641251.1875
-30.30,1686641251.203125
-33.85,1686641251.21875
-36.80,1686641251.234375
-38.65,1686641251.25
-38.97,1686641251.265625
-37.48,1686641251.28125
-34.11,1686641251.296875
-29.05,1686641251.3125
-22.68,1686641251.328125
-15.54,1686641251.34375
-8.20,1686641251.359375
-1.13,1686641251.375
5.34,1686641251.390625
11.06,1686641251.40625
15.94,1686641251.421875
19.95,1686641251.4375
23.02,1686641251.453125
25.08,1686641251.46875
26.13,1686641251.484375
26.27,1686641251.5
25.75,1686641251.515625
24.84,1686641251.53125
23.77,1686641251.546875
22.62,1686641251.5625
21.45,1686641251.578125
20.35,1686641251.59375
19.46,1686641251.609375
19.04,1686641251.625
19.29,1686641251.640625
20.27,1686641251.65625
21.85,1686641251.671875
23.66,1686641251.6875
25.15,1686641251.703125
25.72,1686641251.71875
24.81,1686641251.734375
22.11,1686641251.75
17.69,1686641251.765625
12.02,1686641251.78125
5.81,1686641251.796875
-0.20,1686641251.8125
-5.57,1686641251.828125
-10.28,1686641251.84375
-14.61,1686641251.859375
-19.00,1686641251.875
-23.68,1686641251.890625
-28.67,1686641251.90625
-33.78,1686641251.921875
-38.82,1686641251.9375
-43.66,1686641251.953125
-48.22,1686641251.96875
-52.29,1686641251.984375
-55.41,1686641252.0
-56.95,1686641252.015625
-56.31,1686641252.03125
-53.19,1686641252.046875
-47.81,1686641252.0625
-40.86,1686641252.078125
-33.33,1686641252.09375
-26.08,1686641252.109375
-19.68,1686641252.125
-14.25,1686641252.140625
-9.63,1686641252.15625
-5.57,1686641252.171875
-1.94,1686641252.1875
1.18,1686641252.203125
3.61,1686641252.21875
5.21,1686641252.234375
6.01,1686641252.25
6.21,1686641252.265625
6.10,1686641252.28125
5.92,1686641252.296875
5.83,1686641252.3125
5.81,1686641252.328125
5.80,1686641252.34375
5.74,1686641252.359375
5.54,1686641252.375
5.16,1686641252.390625
4.60,1686641252.40625
3.85,1686641252.421875
2.90,1686641252.4375
1.78,1686641252.453125
0.48,1686641252.46875
-0.99,1686641252.484375
-2.62,1686641252.5
-4.42,1686641252.515625
-6.34,1686641252.53125
-8.30,1686641252.546875
-10.19,1686641252.5625
-11.89,1686641252.578125
-13.38,1686641252.59375
-14.71,1686641252.609375
-16.11,1686641252.625
-17.86,1686641252.640625
-20.28,1686641252.65625
-23.59,1686641252.671875
-27.76,1686641252.6875
-32.47,1686641252.703125
-37.08,1686641252.71875
-40.78,1686641252.734375
-42.77,1686641252.75
-42.49,1686641252.765625
-39.82,1686641252.78125
-35.01,1686641252.796875
-28.62,1686641252.8125
-21.33,1686641252.828125
-13.72,1686641252.84375
-6.19,1686641252.859375
1.04,1686641252.875
7.79,1686641252.890625
13.91,1686641252.90625
19.23,1686641252.921875
23.59,1686641252.9375
26.91,1686641252.953125
29.27,1686641252.96875
30.84,1686641252.984375
31.85,1686641253.0
32.52,1686641253.015625
33.03,1686641253.03125
33.45,1686641253.046875
33.82,1686641253.0625
34.14,1686641253.078125
34.35,1686641253.09375
34.38,1686641253.109375
34.17,1686641253.125
33.64,1686641253.140625
32.78,1686641253.15625
31.62,1686641253.171875
30.23,1686641253.1875
28.65,1686641253.203125
26.88,1686641253.21875
24.85,1686641253.234375
22.44,1686641253.25
19.48,1686641253.265625
15.89,1686641253.28125
11.69,1686641253.296875
7.05,1686641253.3125
2.20,1686641253.328125
-2.59,1686641253.34375
-7.17,1686641253.359375
-11.49,1686641253.375
-15.67,1686641253.390625
-19.93,1686641253.40625
-24.53,1686641253.421875
-29.70,1686641253.4375
-35.49,1686641253.453125
-41.68,1686641253.46875
-47.66,1686641253.484375
-52.56,1686641253.5
-55.36,1686641253.515625
-55.28,1686641253.53125
-52.01,1686641253.546875
-45.85,1686641253.5625
-37.61,1686641253.578125
-28.39,1686641253.59375
-19.26,1686641253.609375
-10.97,1686641253.625
-3.95,1686641253.640625
1.76,1686641253.65625
6.29,1686641253.671875
9.88,1686641253.6875
12.73,1686641253.703125
15.00,1686641253.71875
16.81,1686641253.734375
18.28,1686641253.75
19.53,1686641253.765625
20.66,1686641253.78125
21.73,1686641253.796875
22.76,1686641253.8125
23.72,1686641253.828125
24.59,1686641253.84375
25.36,1686641253.859375
26.05,1686641253.875
26.59,1686641253.890625
26.86,1686641253.90625
26.68,1686641253.921875
25.93,1686641253.9375
24.60,1686641253.953125
22.81,1686641253.96875
20.71,1686641253.984375
18.43,1686641254.0
15.95,1686641254.015625
13.21,1686641254.03125
10.11,1686641254.046875
6.65,1686641254.0625
2.95,1686641254.078125
-0.85,1686641254.09375
-4.57,1686641254.109375
-8.10,1686641254.125
-11.41,1686641254.140625
-14.58,1686641254.15625
-17.78,1686641254.171875
-21.32,1686641254.1875
-25.50,1686641254.203125
-30.50,1686641254.21875
-36.14,1686641254.234375
-41.81,1686641254.25
-46.48,1686641254.265625
-48.97,1686641254.28125
-48.33,1686641254.296875
-44.17,1686641254.3125
-36.79,1686641254.328125
-27.14,1686641254.34375
-16.48,1686641254.359375
-6.00,1686641254.375
3.46,1686641254.390625
11.53,1686641254.40625
18.22,1686641254.421875
23.75,1686641254.4375
28.38,1686641254.453125
32.27,1686641254.46875
35.47,1686641254.484375
37.98,1686641254.5
39.81,1686641254.515625
41.02,1686641254.53125
41.72,1686641254.546875
42.06,1686641254.5625
42.18,1686641254.578125
42.13,1686641254.59375
41.95,1686641254.609375
41.59,1686641254.625
41.05,1686641254.640625
40.36,1686641254.65625
39.58,1686641254.671875
38.80,1686641254.6875
38.05,1686641254.703125
37.27,1686641254.71875
36.34,1686641254.734375
35.09,1686641254.75
33.37,1686641254.765625
31.10,1686641254.78125
28.29,1686641254.796875
25.00,1686641254.8125
21.35,1686641254.828125
17.47,1686641254.84375
13.52,1686641254.859375
9.62,1686641254.875
5.85,1686641254.890625
2.21,1686641254.90625
-1.39,1686641254.921875
-5.15,1686641254.9375
-9.26,1686641254.953125
-13.97,1686641254.96875
-19.42,1686641254.984375
-25.57,1686641255.0
-32.07,1686641255.015625
-38.21,1686641255.03125
-43.00,1686641255.046875
-45.38,1686641255.0625
-44.60,1686641255.078125
-40.40,1686641255.09375
-33.21,1686641255.109375
-24.00,1686641255.125
-13.95,1686641255.140625
-4.19,1686641255.15625
4.53,1686641255.171875
11.90,1686641255.1875
17.94,1686641255.203125
22.87,1686641255.21875
26.84,1686641255.234375
29.94,1686641255.25
32.12,1686641255.265625
33.35,1686641255.28125
33.67,1686641255.296875
33.27,1686641255.3125
32.45,1686641255.328125
31.52,1686641255.34375
30.70,1686641255.359375
30.04,1686641255.375
29.47,1686641255.390625
28.83,1686641255.40625
27.97,1686641255.421875
26.85,1686641255.4375
25.49,1686641255.453125
24.00,1686641255.46875
22.43,1686641255.484375
20.81,1686641255.5
19.07,1686641255.515625
17.11,1686641255.53125
14.79,1686641255.546875
12.03,1686641255.5625
8.80,1686641255.578125
5.16,1686641255.59375
1.25,1686641255.609375
-2.78,1686641255.625
-6.74,1686641255.640625
-10.55,1686641255.65625
-14.17,1686641255.671875
-17.68,1686641255.6875
-21.25,1686641255.703125
-25.04,1686641255.71875
-29.23,1686641255.734375
-33.96,1686641255.75
-39.36,1686641255.765625
-45.46,1686641255.78125
-52.10,1686641255.796875
-58.80,1686641255.8125
-64.65,1686641255.828125
-68.52,1686641255.84375
-69.32,1686641255.859375
-66.45,1686641255.875
-60.06,1686641255.890625
-51.07,1686641255.90625
-40.83,1686641255.921875
-30.61,1686641255.9375
-21.30,1686641255.953125
-13.22,1686641255.96875
-6.27,1686641255.984375
-0.20,1686641256.0
5.18,1686641256.015625
9.99,1686641256.03125
14.24,1686641256.046875
17.95,1686641256.0625
21.21,1686641256.078125
24.09,1686641256.09375
26.66,1686641256.109375
28.96,1686641256.125
31.03,1686641256.140625
32.96,1686641256.15625
34.82,1686641256.171875
36.69,1686641256.1875
38.55,1686641256.203125
40.25,1686641256.21875
41.51,1686641256.234375
42.01,1686641256.25
41.51,1686641256.265625
39.90,1686641256.28125
37.29,1686641256.296875
33.97,1686641256.3125
30.24,1686641256.328125
26.38,1686641256.34375
22.53,1686641256.359375
18.73,1686641256.375
14.96,1686641256.390625
11.19,1686641256.40625
7.43,1686641256.421875
3.78,1686641256.4375
0.34,1686641256.453125
-2.80,1686641256.46875
-5.56,1686641256.484375
-8.03,1686641256.5
-10.39,1686641256.515625
-12.94,1686641256.53125
-15.97,1686641256.546875
-19.71,1686641256.5625
-24.21,1686641256.578125
-29.26,1686641256.59375
-34.41,1686641256.609375
-38.96,1686641256.625
-42.09,1686641256.640625
-42.94,1686641256.65625
-40.85,1686641256.671875
-35.60,1686641256.6875
-27.56,1686641256.703125
-17.61,1686641256.71875
-6.95,1686641256.734375
3.26,1686641256.75
12.15,1686641256.765625
19.31,1686641256.78125
24.74,1686641256.796875
28.66,1686641256.8125
31.38,1686641256.828125
33.14,1686641256.84375
34.14,1686641256.859375
34.54,1686641256.875
34.48,1686641256.890625
34.08,1686641256.90625
33.41,1686641256.921875
32.55,1686641256.9375
31.52,1686641256.953125
30.36,1686641256.96875
29.08,1686641256.984375
27.73,1686641257.0
26.36,1686641257.015625
25.03,1686641257.03125
23.75,1686641257.046875
22.52,1686641257.0625
21.32,1686641257.078125
20.08,1686641257.09375
18.71,1686641257.109375
17.07,1686641257.125
15.05,1686641257.140625
12.49,1686641257.15625
9.35,1686641257.171875
5.69,1686641257.1875
1.72,1686641257.203125
-2.26,1686641257.21875
-6.00,1686641257.234375
-9.35,1686641257.25
-12.38,1686641257.265625
-15.36,1686641257.28125
-18.72,1686641257.296875
-22.86,1686641257.3125
-28.09,1686641257.328125
-34.41,1686641257.34375
-41.42,1686641257.359375
-48.29,1686641257.375
-53.82,1686641257.390625
-56.79,1686641257.40625
-56.26,1686641257.421875
-51.91,1686641257.4375
-44.18,1686641257.453125
-34.15,1686641257.46875
-23.17,1686641257.484375
-12.51,1686641257.5
-2.99,1686641257.515625
5.06,1686641257.53125
11.73,1686641257.546875
17.29,1686641257.5625
21.97,1686641257.578125
25.88,1686641257.59375
28.96,1686641257.609375
31.16,1686641257.625
32.46,1686641257.640625
32.93,1686641257.65625
32.78,1686641257.671875
32.21,1686641257.6875
31.42,1686641257.703125
30.55,1686641257.71875
29.66,1686641257.734375
28.75,1686641257.75
27.78,1686641257.765625
26.68,1686641257.78125
25.36,1686641257.796875
23.76,1686641257.8125
21.82,1686641257.828125
19.55,1686641257.84375
16.99,1686641257.859375
14.20,1686641257.875
11.19,1686641257.890625
8.01,1686641257.90625
4.75,1686641257.921875
1.57,1686641257.9375
-1.32,1686641257.953125
-3.77,1686641257.96875
-5.74,1686641257.984375
-7.40,1686641258.0
-9.07,1686641258.015625
-11.23,1686641258.03125
-14.27,1686641258.046875
-18.46,1686641258.0625
-23.75,1686641258.078125
-29.88,1686641258.09375
-36.35,1686641258.109375
-42.46,1686641258.125
-47.28,1686641258.140625
-49.90,1686641258.15625
-49.52,1686641258.171875
-45.73,1686641258.1875
-38.70,1686641258.203125
-29.18,1686641258.21875
-18.41,1686641258.234375
-7.87,1686641258.25
1.12,1686641258.265625
7.66,1686641258.28125
11.28,1686641258.296875
12.01,1686641258.3125
10.35,1686641258.328125
7.33,1686641258.34375
4.41,1686641258.359375
3.05,1686641258.375
4.34,1686641258.390625
8.85,1686641258.40625
16.83,1686641258.421875
27.96,1686641258.4375
41.47,1686641258.453125
56.26,1686641258.46875
70.79,1686641258.484375
83.56,1686641258.5
92.90,1686641258.515625
97.58,1686641258.53125
97.35,1686641258.546875
93.50,1686641258.5625
88.00,1686641258.578125
82.71,1686641258.59375
78.93,1686641258.609375
77.01,1686641258.625
77.09,1686641258.640625
78.73,1686641258.65625
81.15,1686641258.671875
83.61,1686641258.6875
85.86,1686641258.703125
87.34,1686641258.71875
87.24,1686641258.734375
85.16,1686641258.75
81.11,1686641258.765625
76.18,1686641258.78125
71.20,1686641258.796875
66.05,1686641258.8125
59.79,1686641258.828125
51.69,1686641258.84375
40.70,1686641258.859375
25.93,1686641258.875
7.30,1686641258.890625
-16.29,1686641258.90625
-41.18,1686641258.921875
-61.55,1686641258.9375
-73.59,1686641258.953125
-80.84,1686641258.96875
-86.01,1686641258.984375
-90.05,1686641259.0
-93.22,1686641259.015625
-92.31,1686641259.03125
-86.39,1686641259.046875
-75.65,1686641259.0625
-62.02,1686641259.078125
-48.51,1686641259.09375
-37.75,1686641259.109375
-30.54,1686641259.125
-26.64,1686641259.140625
-25.27,1686641259.15625
-25.29,1686641259.171875
-26.02,1686641259.1875
-26.62,1686641259.203125
-26.90,1686641259.21875
-27.28,1686641259.234375
-28.24,1686641259.25
-29.49,1686641259.265625
-30.67,1686641259.28125
-31.53,1686641259.296875
-31.83,1686641259.3125
-31.80,1686641259.328125
-31.51,1686641259.34375
-31.39,1686641259.359375
-32.05,1686641259.375
-33.82,1686641259.390625
-36.32,1686641259.40625
-38.91,1686641259.421875
-41.07,1686641259.4375
-42.47,1686641259.453125
-43.37,1686641259.46875
-44.19,1686641259.484375
-45.62,1686641259.5
-48.51,1686641259.515625
-53.50,1686641259.53125
-60.65,1686641259.546875
-69.52,1686641259.5625
-79.06,1686641259.578125
-87.61,1686641259.59375
-93.27,1686641259.609375
-94.16,1686641259.625
-89.12,1686641259.640625
-78.09,1686641259.65625
-62.16,1686641259.671875
-43.23,1686641259.6875
-23.48,1686641259.703125
-4.93,1686641259.71875
10.94,1686641259.734375
23.15,1686641259.75
31.20,1686641259.765625
34.88,1686641259.78125
34.31,1686641259.796875
30.11,1686641259.8125
23.41,1686641259.828125
15.79,1686641259.84375
8.92,1686641259.859375
4.06,1686641259.875
1.75,1686641259.890625
1.76,1686641259.90625
3.33,1686641259.921875
5.52,1686641259.9375
7.60,1686641259.953125
9.11,1686641259.96875
9.86,1686641259.984375
9.77,1686641260.0
8.87,1686641260.015625
7.23,1686641260.03125
5.06,1686641260.046875
2.60,1686641260.0625
0.13,1686641260.078125
-2.23,1686641260.09375
-4.47,1686641260.109375
-6.70,1686641260.125
-9.06,1686641260.140625
-11.65,1686641260.15625
-14.56,1686641260.171875
-17.87,1686641260.1875
-21.69,1686641260.203125
-26.19,1686641260.21875
-31.46,1686641260.234375
-37.50,1686641260.25
-44.04,1686641260.265625
-50.59,1686641260.28125
-56.46,1686641260.296875
-60.91,1686641260.3125
-63.23,1686641260.328125
-62.85,1686641260.34375
-59.43,1686641260.359375
-52.76,1686641260.375
-42.90,1686641260.390625
-30.12,1686641260.40625
-14.99,1686641260.421875
1.56,1686641260.4375
18.42,1686641260.453125
34.43,1686641260.46875
48.62,1686641260.484375
60.40,1686641260.5
69.61,1686641260.515625
76.27,1686641260.53125
80.46,1686641260.546875
82.05,1686641260.5625
80.79,1686641260.578125
76.43,1686641260.59375
69.12,1686641260.609375
59.55,1686641260.625
49.01,1686641260.640625
39.13,1686641260.65625
31.43,1686641260.671875
26.84,1686641260.6875
25.47,1686641260.703125
26.67,1686641260.71875
29.30,1686641260.734375
32.15,1686641260.75
34.28,1686641260.765625
35.14,1686641260.78125
34.61,1686641260.796875
32.80,1686641260.8125
29.99,1686641260.828125
26.51,1686641260.84375
22.59,1686641260.859375
18.33,1686641260.875
13.59,1686641260.890625
8.06,1686641260.90625
1.38,1686641260.921875
-6.57,1686641260.9375
-15.43,1686641260.953125
-24.29,1686641260.96875
-31.78,1686641260.984375
-36.50,1686641261.0
-37.45,1686641261.015625
-34.45,1686641261.03125
-28.28,1686641261.046875
-20.46,1686641261.0625
-12.85,1686641261.078125
-7.12,1686641261.09375
-4.30,1686641261.109375
-4.55,1686641261.125
-7.21,1686641261.140625
-11.11,1686641261.15625
-14.96,1686641261.171875
-17.68,1686641261.1875
-18.60,1686641261.203125
-17.53,1686641261.21875
-14.60,1686641261.234375
-10.10,1686641261.25
-4.27,1686641261.265625
2.67,1686641261.28125
10.56,1686641261.296875
19.10,1686641261.3125
27.79,1686641261.328125
35.88,1686641261.34375
42.51,1686641261.359375
46.93,1686641261.375
48.72,1686641261.390625
47.98,1686641261.40625
45.36,1686641261.421875
41.92,1686641261.4375
38.87,1686641261.453125
37.19,1686641261.46875
37.32,1686641261.484375
39.02,1686641261.5
41.51,1686641261.515625
43.74,1686641261.53125
44.74,1686641261.546875
43.86,1686641261.5625
40.87,1686641261.578125
35.90,1686641261.59375
29.37,1686641261.609375
21.93,1686641261.625
14.33,1686641261.640625
7.32,1686641261.65625
1.43,1686641261.671875
-3.23,1686641261.6875
-7.03,1686641261.703125
-10.70,1686641261.71875
-15.02,1686641261.734375
-20.54,1686641261.75
-27.39,1686641261.765625
-35.30,1686641261.78125
-43.70,1686641261.796875
-51.91,1686641261.8125
-59.26,1686641261.828125
-65.22,1686641261.84375
-69.44,1686641261.859375
-71.90,1686641261.875
-72.96,1686641261.890625
-73.29,1686641261.90625
-73.77,1686641261.921875
-75.26,1686641261.9375
-78.28,1686641261.953125
-82.84,1686641261.96875
-88.30,1686641261.984375
-93.44,1686641262.0
-96.72,1686641262.015625
-96.76,1686641262.03125
-92.80,1686641262.046875
-84.98,1686641262.0625
-74.25,1686641262.078125
-62.06,1686641262.09375
-49.83,1686641262.109375
-38.57,1686641262.125
-28.72,1686641262.140625
-20.28,1686641262.15625
-13.09,1686641262.171875
-6.94,1686641262.1875
-1.74,1686641262.203125
2.48,1686641262.21875
5.53,1686641262.234375
6.95,1686641262.25
6.06,1686641262.265625
2.10,1686641262.28125
-5.32,1686641262.296875
-15.75,1686641262.3125
-27.66,1686641262.328125
-38.59,1686641262.34375
-45.83,1686641262.359375
-47.30,1686641262.375
-42.26,1686641262.390625
-31.52,1686641262.40625
-17.03,1686641262.421875
-1.04,1686641262.4375
14.55,1686641262.453125
28.58,1686641262.46875
40.48,1686641262.484375
49.86,1686641262.5
56.26,1686641262.515625
59.14,1686641262.53125
58.12,1686641262.546875
53.36,1686641262.5625
45.66,1686641262.578125
36.22,1686641262.59375
26.33,1686641262.609375
16.91,1686641262.625
8.42,1686641262.640625
0.91,1686641262.65625
-5.74,1686641262.671875
-11.64,1686641262.6875
-16.79,1686641262.703125
-21.11,1686641262.71875
-24.53,1686641262.734375
-27.08,1686641262.75
-28.81,1686641262.765625
-29.80,1686641262.78125
-30.08,1686641262.796875
-29.67,1686641262.8125
-28.54,1686641262.828125
-26.74,1686641262.84375
-24.42,1686641262.859375
-21.75,1686641262.875
-18.85,1686641262.890625
-15.76,1686641262.90625
-12.38,1686641262.921875
-8.55,1686641262.9375
-4.14,1686641262.953125
0.79,1686641262.96875
6.02,1686641262.984375
11.13,1686641263.0
15.68,1686641263.015625
19.35,1686641263.03125
22.04,1686641263.046875
23.96,1686641263.0625
25.53,1686641263.078125
27.15,1686641263.09375
29.04,1686641263.109375
31.08,1686641263.125
32.88,1686641263.140625
33.99,1686641263.15625
34.16,1686641263.171875
33.44,1686641263.1875
32.18,1686641263.203125
30.81,1686641263.21875
29.63,1686641263.234375
28.65,1686641263.25
27.66,1686641263.265625
26.43,1686641263.28125
24.78,1686641263.296875
22.71,1686641263.3125
20.31,1686641263.328125
17.66,1686641263.34375
14.81,1686641263.359375
11.68,1686641263.375
8.15,1686641263.390625
4.14,1686641263.40625
-0.28,1686641263.421875
-4.83,1686641263.4375
-9.05,1686641263.453125
-12.50,1686641263.46875
-14.90,1686641263.484375
-16.32,1686641263.5
-17.23,1686641263.515625
-18.32,1686641263.53125
-20.34,1686641263.546875
-23.72,1686641263.5625
-28.35,1686641263.578125
-33.55,1686641263.59375
-38.19,1686641263.609375
-40.95,1686641263.625
-40.64,1686641263.640625
-36.64,1686641263.65625
-29.15,1686641263.671875
-19.21,1686641263.6875
-8.34,1686641263.703125
2.02,1686641263.71875
11.04,1686641263.734375
18.84,1686641263.75
26.41,1686641263.765625
35.24,1686641263.78125
46.50,1686641263.796875
60.38,1686641263.8125
75.83,1686641263.828125
90.78,1686641263.84375
102.62,1686641263.859375
108.94,1686641263.875
108.19,1686641263.890625
100.31,1686641263.90625
86.89,1686641263.921875
70.43,1686641263.9375
53.27,1686641263.953125
36.95,1686641263.96875
21.93,1686641263.984375
7.99,1686641264.0
-5.22,1686641264.015625
-17.57,1686641264.03125
-27.94,1686641264.046875
-34.36,1686641264.0625
-35.07,1686641264.078125
-29.68,1686641264.09375
-19.51,1686641264.109375
-7.24,1686641264.125
3.84,1686641264.140625
10.62,1686641264.15625
10.86,1686641264.171875
4.00,1686641264.1875
-8.47,1686641264.203125
-23.66,1686641264.21875
-38.21,1686641264.234375
-48.87,1686641264.25
-52.98,1686641264.265625
-49.05,1686641264.28125
-36.27,1686641264.296875
-17.87,1686641264.3125
-1.26,1686641264.328125
6.96,1686641264.34375
5.15,1686641264.359375
-4.19,1686641264.375
-17.20,1686641264.390625
-30.70,1686641264.40625
-42.70,1686641264.421875
-53.36,1686641264.4375
-62.32,1686641264.453125
-68.25,1686641264.46875
-69.06,1686641264.484375
-63.22,1686641264.5
-50.95,1686641264.515625
-34.35,1686641264.53125
-17.02,1686641264.546875
-2.94,1686641264.5625
4.84,1686641264.578125
5.36,1686641264.59375
0.28,1686641264.609375
-6.27,1686641264.625
-9.22,1686641264.640625
-4.68,1686641264.65625
8.61,1686641264.671875
28.72,1686641264.6875
50.99,1686641264.703125
69.51,1686641264.71875
79.01,1686641264.734375
76.56,1686641264.75
62.73,1686641264.765625
41.06,1686641264.78125
16.72,1686641264.796875
-5.28,1686641264.8125
-21.41,1686641264.828125
-30.43,1686641264.84375
-33.25,1686641264.859375
-31.96,1686641264.875
-28.77,1686641264.890625
-25.04,1686641264.90625
-21.34,1686641264.921875
-17.95,1686641264.9375
-15.41,1686641264.953125
-14.49,1686641264.96875
-15.84,1686641264.984375
-19.36,1686641265.0
-23.99,1686641265.015625
-28.04,1686641265.03125
-29.93,1686641265.046875
-28.92,1686641265.0625
-25.44,1686641265.078125
-20.79,1686641265.09375
-16.62,1686641265.109375
-14.20,1686641265.125
-14.06,1686641265.140625
-15.88,1686641265.15625
-18.63,1686641265.171875
-20.84,1686641265.1875
-21.01,1686641265.203125
-18.04,1686641265.21875
-11.67,1686641265.234375
-2.68,1686641265.25
7.21,1686641265.265625
15.94,1686641265.28125
21.80,1686641265.296875
24.11,1686641265.3125
23.40,1686641265.328125
21.20,1686641265.34375
19.35,1686641265.359375
19.26,1686641265.375
21.41,1686641265.390625
25.29,1686641265.40625
29.69,1686641265.421875
33.37,1686641265.4375
35.50,1686641265.453125
35.94,1686641265.46875
35.03,1686641265.484375
33.26,1686641265.5
30.99,1686641265.515625
28.31,1686641265.53125
25.27,1686641265.546875
22.06,1686641265.5625
19.15,1686641265.578125
17.22,1686641265.59375
16.80,1686641265.609375
17.96,1686641265.625
20.18,1686641265.640625
22.52,1686641265.65625
23.91,1686641265.671875
23.57,1686641265.6875
21.29,1686641265.703125
17.41,1686641265.71875
12.65,1686641265.734375
7.77,1686641265.75
3.36,1686641265.765625
-0.37,1686641265.78125
-3.54,1686641265.796875
-6.52,1686641265.8125
-9.75,1686641265.828125
-13.60,1686641265.84375
-18.24,1686641265.859375
-23.71,1686641265.875
-29.90,1686641265.890625
-36.54,1686641265.90625
-43.09,1686641265.921875
-48.83,1686641265.9375
-52.89,1686641265.953125
-54.59,1686641265.96875
-53.74,1686641265.984375
-50.71,1686641266.0
-46.27,1686641266.015625
-41.28,1686641266.03125
-36.27,1686641266.046875
-31.31,1686641266.0625
-26.14,1686641266.078125
-20.53,1686641266.09375
-14.49,1686641266.109375
-8.34,1686641266.125
-2.50,1686641266.140625
2.73,1686641266.15625
7.31,1686641266.171875
11.29,1686641266.1875
14.69,1686641266.203125
17.30,1686641266.21875
18.82,1686641266.234375
19.09,1686641266.25
18.28,1686641266.265625
16.90,1686641266.28125
15.59,1686641266.296875
14.87,1686641266.3125
14.95,1686641266.328125
15.71,1686641266.34375
16.82,1686641266.359375
17.95,1686641266.375
18.87,1686641266.390625
19.46,1686641266.40625
19.68,1686641266.421875
19.51,1686641266.4375
18.92,1686641266.453125
17.86,1686641266.46875
16.26,1686641266.484375
14.08,1686641266.5
11.37,1686641266.515625
8.33,1686641266.53125
5.25,1686641266.546875
2.50,1686641266.5625
0.44,1686641266.578125
-0.77,1686641266.59375
-1.15,1686641266.609375
-0.98,1686641266.625
-0.79,1686641266.640625
-1.17,1686641266.65625
-2.63,1686641266.671875
-5.39,1686641266.6875
-9.18,1686641266.703125
-13.16,1686641266.71875
-16.10,1686641266.734375
-16.80,1686641266.75
-14.47,1686641266.765625
-9.13,1686641266.78125
-1.61,1686641266.796875
6.75,1686641266.8125
14.62,1686641266.828125
21.09,1686641266.84375
25.80,1686641266.859375
28.87,1686641266.875
30.57,1686641266.890625
31.19,1686641266.90625
30.82,1686641266.921875
29.53,1686641266.9375
27.39,1686641266.953125
24.57,1686641266.96875
21.33,1686641266.984375
18.00,1686641267.0
14.86,1686641267.015625
12.13,1686641267.03125
9.99,1686641267.046875
8.52,1686641267.0625
7.69,1686641267.078125
7.33,1686641267.09375
7.20,1686641267.109375
7.05,1686641267.125
6.73,1686641267.140625
6.21,1686641267.15625
5.52,1686641267.171875
4.69,1686641267.1875
3.61,1686641267.203125
2.11,1686641267.21875
0.05,1686641267.234375
-2.56,1686641267.25
-5.47,1686641267.265625
-8.23,1686641267.28125
-10.36,1686641267.296875
-11.58,1686641267.3125
-11.88,1686641267.328125
-11.60,1686641267.34375
-11.19,1686641267.359375
-11.16,1686641267.375
-11.91,1686641267.390625
-13.60,1686641267.40625
-16.24,1686641267.421875
-19.56,1686641267.4375
-23.10,1686641267.453125
-26.13,1686641267.46875
-27.88,1686641267.484375
-27.63,1686641267.5
-25.00,1686641267.515625
-20.04,1686641267.53125
-13.27,1686641267.546875
-5.46,1686641267.5625
2.51,1686641267.578125
9.89,1686641267.59375
16.15,1686641267.609375
21.02,1686641267.625
24.42,1686641267.640625
26.41,1686641267.65625
27.13,1686641267.671875
26.83,1686641267.6875
25.82,1686641267.703125
24.42,1686641267.71875
22.96,1686641267.734375
21.69,1686641267.75
20.69,1686641267.765625
19.92,1686641267.78125
19.25,1686641267.796875
18.56,1686641267.8125
17.80,1686641267.828125
17.00,1686641267.84375
16.21,1686641267.859375
15.48,1686641267.875
14.80,1686641267.890625
14.07,1686641267.90625
13.21,1686641267.921875
12.07,1686641267.9375
10.54,1686641267.953125
8.57,1686641267.96875
6.20,1686641267.984375
3.60,1686641268.0
1.11,1686641268.015625
-0.89,1686641268.03125
-2.08,1686641268.046875
-2.30,1686641268.0625
-1.73,1686641268.078125
-0.74,1686641268.09375
0.11,1686641268.109375
0.28,1686641268.125
-0.51,1686641268.140625
-2.25,1686641268.15625
-4.51,1686641268.171875
-6.56,1686641268.1875
-7.59,1686641268.203125
-6.91,1686641268.21875
-4.24,1686641268.234375
0.22,1686641268.25
5.87,1686641268.265625
11.92,1686641268.28125
17.68,1686641268.296875
22.70,1686641268.3125
26.78,1686641268.328125
29.89,1686641268.34375
31.98,1686641268.359375
32.96,1686641268.375
32.81,1686641268.390625
31.65,1686641268.40625
29.76,1686641268.421875
27.57,1686641268.4375
25.46,1686641268.453125
23.65,1686641268.46875
22.14,1686641268.484375
20.76,1686641268.5
19.34,1686641268.515625
17.72,1686641268.53125
15.87,1686641268.546875
13.83,1686641268.5625
11.67,1686641268.578125
9.48,1686641268.59375
7.34,1686641268.609375
5.31,1686641268.625
3.42,1686641268.640625
1.63,1686641268.65625
-0.24,1686641268.671875
-2.37,1686641268.6875
-4.99,1686641268.703125
-8.15,1686641268.71875
-11.76,1686641268.734375
-15.53,1686641268.75
-19.15,1686641268.765625
-22.41,1686641268.78125
-25.29,1686641268.796875
-27.99,1686641268.8125
-30.80,1686641268.828125
-33.94,1686641268.84375
-37.42,1686641268.859375
-40.98,1686641268.875
-44.17,1686641268.890625
-46.45,1686641268.90625
-47.29,1686641268.921875
-46.28,1686641268.9375
-43.19,1686641268.953125
-38.04,1686641268.96875
-31.11,1686641268.984375
-23.01,1686641269.0
-14.51,1686641269.015625
-6.45,1686641269.03125
0.55,1686641269.046875
6.20,1686641269.0625
10.60,1686641269.078125
14.07,1686641269.09375
16.98,1686641269.109375
19.51,1686641269.125
21.71,1686641269.140625
23.49,1686641269.15625
24.77,1686641269.171875
25.61,1686641269.1875
26.14,1686641269.203125
26.53,1686641269.21875
26.88,1686641269.234375
27.17,1686641269.25
27.30,1686641269.265625
27.14,1686641269.28125
26.66,1686641269.296875
25.86,1686641269.3125
24.80,1686641269.328125
23.58,1686641269.34375
22.23,1686641269.359375
20.76,1686641269.375
19.08,1686641269.390625
17.12,1686641269.40625
14.80,1686641269.421875
12.13,1686641269.4375
9.27,1686641269.453125
6.41,1686641269.46875
3.79,1686641269.484375
1.54,1686641269.5
-0.41,1686641269.515625
-2.22,1686641269.53125
-4.15,1686641269.546875
-6.40,1686641269.5625
-9.09,1686641269.578125
-12.19,1686641269.59375
-15.66,1686641269.609375
-19.37,1686641269.625
-23.15,1686641269.640625
-26.71,1686641269.65625
-29.66,1686641269.671875
-31.50,1686641269.6875
-31.76,1686641269.703125
-30.10,1686641269.71875
-26.49,1686641269.734375
-21.23,1686641269.75
-14.91,1686641269.765625
-8.31,1686641269.78125
-2.12,1686641269.796875
3.17,1686641269.8125
7.38,1686641269.828125
10.57,1686641269.84375
12.94,1686641269.859375
14.64,1686641269.875
15.79,1686641269.890625
16.40,1686641269.90625
16.54,1686641269.921875
16.38,1686641269.9375
16.17,1686641269.953125
16.15,1686641269.96875
16.44,1686641269.984375
16.96,1686641270.0
17.51,1686641270.015625
17.86,1686641270.03125
17.92,1686641270.046875
17.72,1686641270.0625
17.41,1686641270.078125
17.15,1686641270.09375
16.95,1686641270.109375
16.71,1686641270.125
16.23,1686641270.140625
15.38,1686641270.15625
14.13,1686641270.171875
12.61,1686641270.1875
10.97,1686641270.203125
9.33,1686641270.21875
7.68,1686641270.234375
5.90,1686641270.25
3.85,1686641270.265625
1.46,1686641270.28125
-1.19,1686641270.296875
-3.89,1686641270.3125
-6.39,1686641270.328125
-8.55,1686641270.34375
-10.42,1686641270.359375
-12.20,1686641270.375
-14.19,1686641270.390625
-16.63,1686641270.40625
-19.57,1686641270.421875
-22.83,1686641270.4375
-25.97,1686641270.453125
-28.45,1686641270.46875
-29.71,1686641270.484375
-29.37,1686641270.5
-27.28,1686641270.515625
-23.60,1686641270.53125
-18.71,1686641270.546875
-13.11,1686641270.5625
-7.37,1686641270.578125
-1.96,1686641270.59375
2.79,1686641270.609375
6.70,1686641270.625
9.78,1686641270.640625
12.12,1686641270.65625
13.82,1686641270.671875
14.95,1686641270.6875
15.53,1686641270.703125
15.58,1686641270.71875
15.13,1686641270.734375
14.34,1686641270.75
13.37,1686641270.765625
12.39,1686641270.78125
11.46,1686641270.796875
10.59,1686641270.8125
9.74,1686641270.828125
8.91,1686641270.84375
8.13,1686641270.859375
7.45,1686641270.875
6.86,1686641270.890625
6.31,1686641270.90625
5.68,1686641270.921875
4.88,1686641270.9375
3.91,1686641270.953125
2.86,1686641270.96875
1.77,1686641270.984375
0.66,1686641271.0
-0.57,1686641271.015625
-2.02,1686641271.03125
-3.72,1686641271.046875
-5.59,1686641271.0625
-7.44,1686641271.078125
-9.09,1686641271.09375
-10.46,1686641271.109375
-11.63,1686641271.125
-12.78,1686641271.140625
-14.08,1686641271.15625
-15.67,1686641271.171875
-17.58,1686641271.1875
-19.73,1686641271.203125
-21.98,1686641271.21875
-24.07,1686641271.234375
-25.69,1686641271.25
-26.47,1686641271.265625
-26.02,1686641271.28125
-24.10,1686641271.296875
-20.69,1686641271.3125
-16.01,1686641271.328125
-10.57,1686641271.34375
-4.98,1686641271.359375
0.16,1686641271.375
4.42,1686641271.390625
7.63,1686641271.40625
9.84,1686641271.421875
11.28,1686641271.4375
12.17,1686641271.453125
12.68,1686641271.46875
12.83,1686641271.484375
12.61,1686641271.5
12.06,1686641271.515625
11.33,1686641271.53125
10.66,1686641271.546875
10.29,1686641271.5625
10.34,1686641271.578125
10.78,1686641271.59375
11.41,1686641271.609375
12.03,1686641271.625
12.48,1686641271.640625
12.66,1686641271.65625
12.51,1686641271.671875
11.97,1686641271.6875
11.03,1686641271.703125
9.71,1686641271.71875
8.16,1686641271.734375
6.63,1686641271.75
5.35,1686641271.765625
4.44,1686641271.78125
3.79,1686641271.796875
3.10,1686641271.8125
2.06,1686641271.828125
0.47,1686641271.84375
-1.65,1686641271.859375
-4.11,1686641271.875
-6.62,1686641271.890625
-9.01,1686641271.90625
-11.23,1686641271.921875
-13.40,1686641271.9375
-15.69,1686641271.953125
-18.24,1686641271.96875
-21.08,1686641271.984375
-24.15,1686641272.0
-27.28,1686641272.015625
-30.18,1686641272.03125
-32.50,1686641272.046875
-33.85,1686641272.0625
-33.81,1686641272.078125
-32.11,1686641272.09375
-28.66,1686641272.109375
-23.67,1686641272.125
-17.59,1686641272.140625
-10.96,1686641272.15625
-4.33,1686641272.171875
1.91,1686641272.1875
7.52,1686641272.203125
12.31,1686641272.21875
16.13,1686641272.234375
18.81,1686641272.25
20.20,1686641272.265625
20.27,1686641272.28125
19.17,1686641272.296875
17.25,1686641272.3125
14.99,1686641272.328125
12.88,1686641272.34375
11.32,1686641272.359375
10.52,1686641272.375
10.43,1686641272.390625
10.82,1686641272.40625
11.36,1686641272.421875
11.75,1686641272.4375
11.81,1686641272.453125
11.48,1686641272.46875
10.82,1686641272.484375
9.89,1686641272.5
8.70,1686641272.515625
7.25,1686641272.53125
5.57,1686641272.546875
3.80,1686641272.5625
2.22,1686641272.578125
1.09,1686641272.59375
0.60,1686641272.609375
0.70,1686641272.625
1.20,1686641272.640625
1.76,1686641272.65625
2.11,1686641272.671875
2.10,1686641272.6875
1.76,1686641272.703125
1.21,1686641272.71875
0.60,1686641272.734375
-0.02,1686641272.75
-0.77,1686641272.765625
-1.83,1686641272.78125
-3.47,1686641272.796875
-5.81,1686641272.8125
-8.82,1686641272.828125
-12.18,1686641272.84375
-15.40,1686641272.859375
-17.84,1686641272.875
-18.95,1686641272.890625
-18.39,1686641272.90625
-16.09,1686641272.921875
-12.27,1686641272.9375
-7.31,1686641272.953125
-1.60,1686641272.96875
4.52,1686641272.984375
10.87,1686641273.0
17.37,1686641273.015625
24.06,1686641273.03125
30.97,1686641273.046875
38.05,1686641273.0625
45.13,1686641273.078125
51.83,1686641273.09375
57.64,1686641273.109375
62.00,1686641273.125
64.49,1686641273.140625
64.99,1686641273.15625
63.68,1686641273.171875
61.03,1686641273.1875
57.61,1686641273.203125
53.90,1686641273.21875
50.18,1686641273.234375
46.48,1686641273.25
42.67,1686641273.265625
38.52,1686641273.28125
33.84,1686641273.296875
28.52,1686641273.3125
22.58,1686641273.328125
16.12,1686641273.34375
9.34,1686641273.359375
2.48,1686641273.375
-4.16,1686641273.390625
-10.26,1686641273.40625
-15.54,1686641273.421875
-19.89,1686641273.4375
-23.42,1686641273.453125
-26.51,1686641273.46875
-29.71,1686641273.484375
-33.49,1686641273.5
-38.11,1686641273.515625
-43.39,1686641273.53125
-48.88,1686641273.546875
-53.97,1686641273.5625
-58.21,1686641273.578125
-61.41,1686641273.59375
-63.69,1686641273.609375
-65.31,1686641273.625
-66.52,1686641273.640625
-67.44,1686641273.65625
-68.03,1686641273.671875
-68.17,1686641273.6875
-67.67,1686641273.703125
-66.36,1686641273.71875
-64.06,1686641273.734375
-60.61,1686641273.75
-55.90,1686641273.765625
-49.90,1686641273.78125
-42.80,1686641273.796875
-34.98,1686641273.8125
-27.00,1686641273.828125
-19.45,1686641273.84375
-12.77,1686641273.859375
-7.17,1686641273.875
-2.57,1686641273.890625
1.27,1686641273.90625
4.67,1686641273.921875
7.83,1686641273.9375
10.76,1686641273.953125
13.34,1686641273.96875
15.37,1686641273.984375
16.69,1686641274.0
17.24,1686641274.015625
17.13,1686641274.03125
16.55,1686641274.046875
15.67,1686641274.0625
14.64,1686641274.078125
13.54,1686641274.09375
12.44,1686641274.109375
11.45,1686641274.125
10.69,1686641274.140625
10.25,1686641274.15625
10.04,1686641274.171875
9.79,1686641274.1875
9.19,1686641274.203125
8.03,1686641274.21875
6.36,1686641274.234375
4.49,1686641274.25
2.88,1686641274.265625
1.85,1686641274.28125
1.45,1686641274.296875
1.37,1686641274.3125
1.19,1686641274.328125
0.51,1686641274.34375
-0.84,1686641274.359375
-2.78,1686641274.375
-5.05,1686641274.390625
-7.30,1686641274.40625
-9.25,1686641274.421875
-10.70,1686641274.4375
-11.61,1686641274.453125
-12.13,1686641274.46875
-12.57,1686641274.484375
-13.29,1686641274.5
-14.54,1686641274.515625
-16.40,1686641274.53125
-18.63,1686641274.546875
-20.78,1686641274.5625
-22.28,1686641274.578125
-22.64,1686641274.59375
-21.51,1686641274.609375
-18.81,1686641274.625
-14.78,1686641274.640625
-9.86,1686641274.65625
-4.66,1686641274.671875
0.23,1686641274.6875
4.36,1686641274.703125
7.54,1686641274.71875
9.76,1686641274.734375
11.19,1686641274.75
11.97,1686641274.765625
12.24,1686641274.78125
12.07,1686641274.796875
11.54,1686641274.8125
10.81,1686641274.828125
10.06,1686641274.84375
9.48,1686641274.859375
9.19,1686641274.875
9.20,1686641274.890625
9.42,1686641274.90625
9.71,1686641274.921875
9.90,1686641274.9375
9.89,1686641274.953125
9.69,1686641274.96875
9.41,1686641274.984375
9.32,1686641275.0
9.66,1686641275.015625
10.59,1686641275.03125
12.07,1686641275.046875
13.85,1686641275.0625
15.57,1686641275.078125
16.87,1686641275.09375
17.54,1686641275.109375
17.53,1686641275.125
16.85,1686641275.140625
15.57,1686641275.15625
13.69,1686641275.171875
11.27,1686641275.1875
8.39,1686641275.203125
5.31,1686641275.21875
2.33,1686641275.234375
-0.27,1686641275.25
-2.43,1686641275.265625
-4.30,1686641275.28125
-6.24,1686641275.296875
-8.57,1686641275.3125
-11.40,1686641275.328125
-14.49,1686641275.34375
-17.33,1686641275.359375
-19.30,1686641275.375
-19.85,1686641275.390625
-18.74,1686641275.40625
-16.05,1686641275.421875
-12.12,1686641275.4375
-7.45,1686641275.453125
-2.56,1686641275.46875
2.08,1686641275.484375
6.09,1686641275.5
9.24,1686641275.515625
11.43,1686641275.53125
12.71,1686641275.546875
13.23,1686641275.5625
13.23,1686641275.578125
12.91,1686641275.59375
12.44,1686641275.609375
11.93,1686641275.625
11.47,1686641275.640625
11.14,1686641275.65625
11.06,1686641275.671875
11.32,1686641275.6875
11.97,1686641275.703125
12.94,1686641275.71875
14.04,1686641275.734375
15.05,1686641275.75
15.80,1686641275.765625
16.20,1686641275.78125
16.28,1686641275.796875
16.17,1686641275.8125
15.97,1686641275.828125
15.74,1686641275.84375
15.55,1686641275.859375
15.45,1686641275.875
15.52,1686641275.890625
15.80,1686641275.90625
16.29,1686641275.921875
16.89,1686641275.9375
17.41,1686641275.953125
17.68,1686641275.96875
17.62,1686641275.984375
17.29,1686641276.0
16.90,1686641276.015625
16.66,1686641276.03125
16.70,1686641276.046875
17.01,1686641276.0625
17.40,1686641276.078125
17.59,1686641276.09375
17.34,1686641276.109375
16.55,1686641276.125
15.27,1686641276.140625
13.68,1686641276.15625
11.97,1686641276.171875
10.25,1686641276.1875
8.55,1686641276.203125
6.82,1686641276.21875
4.99,1686641276.234375
3.07,1686641276.25
1.10,1686641276.265625
-0.88,1686641276.28125
-2.89,1686641276.296875
-4.98,1686641276.3125
-7.22,1686641276.328125
-9.66,1686641276.34375
-12.24,1686641276.359375
-14.77,1686641276.375
-16.90,1686641276.390625
-18.18,1686641276.40625
-18.07,1686641276.421875
-16.08,1686641276.4375
-11.88,1686641276.453125
-5.45,1686641276.46875
2.89,1686641276.484375
12.47,1686641276.5
22.44,1686641276.515625
31.98,1686641276.53125
40.41,1686641276.546875
47.40,1686641276.5625
52.94,1686641276.578125
57.26,1686641276.59375
60.76,1686641276.609375
63.79,1686641276.625
66.56,1686641276.640625
69.09,1686641276.65625
71.24,1686641276.671875
72.81,1686641276.6875
73.62,1686641276.703125
73.49,1686641276.71875
72.21,1686641276.734375
69.57,1686641276.75
65.40,1686641276.765625
59.65,1686641276.78125
52.42,1686641276.796875
43.89,1686641276.8125
34.06,1686641276.828125
22.64,1686641276.84375
9.09,1686641276.859375
-7.05,1686641276.875
-25.78,1686641276.890625
-46.38,1686641276.90625
-67.43,1686641276.921875
-87.20,1686641276.9375
-104.07,1686641276.953125
-116.90,1686641276.96875
-125.06,1686641276.984375
-128.43,1686641277.0
-127.26,1686641277.015625
-122.22,1686641277.03125
-114.48,1686641277.046875
-105.67,1686641277.0625
-97.57,1686641277.078125
-91.66,1686641277.09375
-88.74,1686641277.109375
-88.72,1686641277.125
-90.79,1686641277.140625
-93.81,1686641277.15625
-96.71,1686641277.171875
-98.75,1686641277.1875
-99.53,1686641277.203125
-98.83,1686641277.21875
-96.47,1686641277.234375
-92.28,1686641277.25
-86.14,1686641277.265625
-78.10,1686641277.28125
-68.43,1686641277.296875
-57.63,1686641277.3125
-46.35,1686641277.328125
-35.24,1686641277.34375
-24.80,1686641277.359375
-15.33,1686641277.375
-6.88,1686641277.390625
0.66,1686641277.40625
7.38,1686641277.421875
13.23,1686641277.4375
17.92,1686641277.453125
20.99,1686641277.46875
21.99,1686641277.484375
20.74,1686641277.5
17.51,1686641277.515625
13.00,1686641277.53125
8.10,1686641277.546875
3.66,1686641277.5625
0.15,1686641277.578125
-2.35,1686641277.59375
-4.00,1686641277.609375
-5.01,1686641277.625
-5.43,1686641277.640625
-5.13,1686641277.65625
-3.98,1686641277.671875
-2.05,1686641277.6875
0.28,1686641277.703125
2.42,1686641277.71875
3.84,1686641277.734375
4.25,1686641277.75
3.80,1686641277.765625
2.92,1686641277.78125
2.18,1686641277.796875
2.06,1686641277.8125
2.84,1686641277.828125
4.58,1686641277.84375
7.22,1686641277.859375
10.54,1686641277.875
14.29,1686641277.890625
18.09,1686641277.90625
21.45,1686641277.921875
23.97,1686641277.9375
25.40,1686641277.953125
25.78,1686641277.96875
25.38,1686641277.984375
24.56,1686641278.0
23.55,1686641278.015625
22.42,1686641278.03125
21.05,1686641278.046875
19.34,1686641278.0625
17.33,1686641278.078125
15.28,1686641278.09375
13.50,1686641278.109375
12.27,1686641278.125
11.62,1686641278.140625
11.39,1686641278.15625
11.31,1686641278.171875
11.14,1686641278.1875
10.74,1686641278.203125
10.06,1686641278.21875
9.06,1686641278.234375
7.63,1686641278.25
5.74,1686641278.265625
3.41,1686641278.28125
0.85,1686641278.296875
-1.64,1686641278.3125
-3.74,1686641278.328125
-5.26,1686641278.34375
-6.21,1686641278.359375
-6.77,1686641278.375
-7.23,1686641278.390625
-7.82,1686641278.40625
-8.73,1686641278.421875
-10.01,1686641278.4375
-11.63,1686641278.453125
-13.48,1686641278.46875
-15.33,1686641278.484375
-16.95,1686641278.5
-18.06,1686641278.515625
-18.46,1686641278.53125
-18.03,1686641278.546875
-16.71,1686641278.5625
-14.56,1686641278.578125
-11.69,1686641278.59375
-8.22,1686641278.609375
-4.21,1686641278.625
0.31,1686641278.640625
5.33,1686641278.65625
10.74,1686641278.671875
16.27,1686641278.6875
21.47,1686641278.703125
25.79,1686641278.71875
28.78,1686641278.734375
30.30,1686641278.75
30.57,1686641278.765625
30.14,1686641278.78125
29.59,1686641278.796875
29.28,1686641278.8125
29.15,1686641278.828125
28.75,1686641278.84375
27.56,1686641278.859375
25.27,1686641278.875
21.97,1686641278.890625
18.05,1686641278.90625
13.93,1686641278.921875
9.78,1686641278.9375
5.38,1686641278.953125
0.30,1686641278.96875
-5.75,1686641278.984375
-12.62,1686641279.0
-19.63,1686641279.015625
-25.78,1686641279.03125
-30.30,1686641279.046875
-32.83,1686641279.0625
-33.58,1686641279.078125
-33.04,1686641279.09375
-31.74,1686641279.109375
-29.98,1686641279.125
-27.74,1686641279.140625
-24.77,1686641279.15625
-20.76,1686641279.171875
-15.55,1686641279.1875
-9.22,1686641279.203125
-2.04,1686641279.21875
5.50,1686641279.234375
12.87,1686641279.25
19.79,1686641279.265625
26.45,1686641279.28125
33.70,1686641279.296875
42.93,1686641279.3125
55.45,1686641279.328125
72.31,1686641279.34375
93.84,1686641279.359375
119.15,1686641279.375
145.75,1686641279.390625
169.61,1686641279.40625
185.80,1686641279.421875
189.71,1686641279.4375
178.52,1686641279.453125
151.86,1686641279.46875
112.94,1686641279.484375
68.18,1686641279.5
25.66,1686641279.515625
-7.41,1686641279.53125
-26.79,1686641279.546875
-32.28,1686641279.5625
-27.33,1686641279.578125
-17.34,1686641279.59375
-8.55,1686641279.609375
-5.30,1686641279.625
-9.09,1686641279.640625
-18.84,1686641279.65625
-32.32,1686641279.671875
-47.46,1686641279.6875
-62.93,1686641279.703125
-77.96,1686641279.71875
-91.80,1686641279.734375
-104.45,1686641279.75
-115.32,1686641279.765625
-123.36,1686641279.78125
-127.65,1686641279.796875
-128.33,1686641279.8125
-126.92,1686641279.828125
-125.82,1686641279.84375
-127.30,1686641279.859375
-125.74,1686641279.875
-117.27,1686641279.890625
-101.16,1686641279.90625
-80.37,1686641279.921875
-58.96,1686641279.9375
-39.91,1686641279.953125
-24.51,1686641279.96875
-12.84,1686641279.984375
-4.08,1686641280.0
3.09,1686641280.015625
8.88,1686641280.03125
13.29,1686641280.046875
16.25,1686641280.0625
17.94,1686641280.078125
18.50,1686641280.09375
18.14,1686641280.109375
17.26,1686641280.125
16.49,1686641280.140625
16.58,1686641280.15625
17.22,1686641280.171875
17.85,1686641280.1875
17.96,1686641280.203125
17.33,1686641280.21875
15.65,1686641280.234375
12.52,1686641280.25
7.69,1686641280.265625
1.53,1686641280.28125
-4.65,1686641280.296875
-9.27,1686641280.3125
-10.51,1686641280.328125
-7.66,1686641280.34375
-0.45,1686641280.359375
9.52,1686641280.375
19.52,1686641280.390625
26.91,1686641280.40625
30.38,1686641280.421875
30.37,1686641280.4375
28.29,1686641280.453125
25.85,1686641280.46875
24.16,1686641280.484375
23.44,1686641280.5
23.05,1686641280.515625
22.13,1686641280.53125
20.27,1686641280.546875
17.61,1686641280.5625
14.75,1686641280.578125
12.34,1686641280.59375
10.91,1686641280.609375
10.70,1686641280.625
11.67,1686641280.640625
13.33,1686641280.65625
14.97,1686641280.671875
15.86,1686641280.6875
15.52,1686641280.703125
13.86,1686641280.71875
11.14,1686641280.734375
7.83,1686641280.75
4.38,1686641280.765625
1.11,1686641280.78125
-1.90,1686641280.796875
-4.75,1686641280.8125
-7.31,1686641280.828125
-9.51,1686641280.84375
-11.34,1686641280.859375
-12.99,1686641280.875
-14.70,1686641280.890625
-16.62,1686641280.90625
-18.65,1686641280.921875
-20.41,1686641280.9375
-21.24,1686641280.953125
-20.38,1686641280.96875
-17.30,1686641280.984375
-12.05,1686641281.0
-5.46,1686641281.015625
0.98,1686641281.03125
5.56,1686641281.046875
6.89,1686641281.0625
4.42,1686641281.078125
-1.20,1686641281.09375
-8.43,1686641281.109375
-15.38,1686641281.125
-20.61,1686641281.140625
-23.46,1686641281.15625
-23.62,1686641281.171875
-20.80,1686641281.1875
-14.61,1686641281.203125
-4.93,1686641281.21875
7.47,1686641281.234375
20.54,1686641281.25
31.58,1686641281.265625
38.06,1686641281.28125
38.80,1686641281.296875
34.95,1686641281.3125
29.47,1686641281.328125
25.34,1686641281.34375
23.96,1686641281.359375
24.64,1686641281.375
25.07,1686641281.390625
23.32,1686641281.40625
18.53,1686641281.421875
11.27,1686641281.4375
3.59,1686641281.453125
-2.02,1686641281.46875
-4.17,1686641281.484375
-3.25,1686641281.5
-0.98,1686641281.515625
0.25,1686641281.53125
-0.78,1686641281.546875
-4.40,1686641281.5625
-10.09,1686641281.578125
-15.98,1686641281.59375
-19.30,1686641281.609375
-17.65,1686641281.625
-9.99,1686641281.640625
3.59,1686641281.65625
21.72,1686641281.671875
43.54,1686641281.6875
67.85,1686641281.703125
89.02,1686641281.71875
100.41,1686641281.734375
99.04,1686641281.75
87.76,1686641281.765625
72.12,1686641281.78125
60.14,1686641281.796875
51.02,1686641281.8125
43.40,1686641281.828125
36.58,1686641281.84375
30.75,1686641281.859375
25.76,1686641281.875
22.80,1686641281.890625
22.27,1686641281.90625
22.92,1686641281.921875
22.79,1686641281.9375
19.31,1686641281.953125
11.66,1686641281.96875
0.04,1686641281.984375
-14.81,1686641282.0
-31.38,1686641282.015625
-47.60,1686641282.03125
-61.67,1686641282.046875
-72.61,1686641282.0625
-79.27,1686641282.078125
-81.67,1686641282.09375
-80.18,1686641282.109375
-76.49,1686641282.125
-73.54,1686641282.140625
-73.98,1686641282.15625
-78.99,1686641282.171875
-88.11,1686641282.1875
-100.05,1686641282.203125
-112.10,1686641282.21875
-122.68,1686641282.234375
-130.83,1686641282.25
-136.59,1686641282.265625
-140.70,1686641282.28125
-143.70,1686641282.296875
-145.67,1686641282.3125
-146.76,1686641282.328125
-148.16,1686641282.34375
-150.29,1686641282.359375
-154.01,1686641282.375
-159.17,1686641282.390625
-164.39,1686641282.40625
-167.27,1686641282.421875
-165.00,1686641282.4375
-155.30,1686641282.453125
-134.24,1686641282.46875
-107.95,1686641282.484375
-77.59,1686641282.5
-44.31,1686641282.515625
-8.58,1686641282.53125
29.20,1686641282.546875
67.91,1686641282.5625
105.33,1686641282.578125
138.30,1686641282.59375
163.45,1686641282.609375
177.83,1686641282.625
181.73,1686641282.640625
178.19,1686641282.65625
171.15,1686641282.671875
163.60,1686641282.6875
156.64,1686641282.703125
150.19,1686641282.71875
143.89,1686641282.734375
137.65,1686641282.75
131.40,1686641282.765625
126.28,1686641282.78125
124.85,1686641282.796875
128.45,1686641282.8125
136.18,1686641282.828125
145.36,1686641282.84375
153.45,1686641282.859375
159.29,1686641282.875
163.04,1686641282.890625
165.47,1686641282.90625
168.20,1686641282.921875
175.01,1686641282.9375
188.05,1686641282.953125
206.48,1686641282.96875
226.64,1686641282.984375
244.33,1686641283.0
256.35,1686641283.015625
260.66,1686641283.03125
256.09,1686641283.046875
226.20,1686641283.0625
165.44,1686641283.078125
83.19,1686641283.09375
-0.98,1686641283.109375
-70.89,1686641283.125
-120.47,1686641283.140625
-151.41,1686641283.15625
-168.52,1686641283.171875
-176.56,1686641283.1875
-178.95,1686641283.203125
-175.32,1686641283.21875
-165.70,1686641283.234375
-152.30,1686641283.25
-139.29,1686641283.265625
-130.17,1686641283.28125
-125.80,1686641283.296875
-124.79,1686641283.3125
-124.35,1686641283.328125
-122.23,1686641283.34375
-115.57,1686641283.359375
-104.82,1686641283.375
-92.05,1686641283.390625
-80.92,1686641283.40625
-73.92,1686641283.421875
-71.07,1686641283.4375
-70.86,1686641283.453125
-71.21,1686641283.46875
-70.93,1686641283.484375
-68.65,1686641283.5
-64.33,1686641283.515625
-58.97,1686641283.53125
-54.10,1686641283.546875
-50.46,1686641283.5625
-46.24,1686641283.578125
-41.11,1686641283.59375
-34.52,1686641283.609375
-25.76,1686641283.625
-13.19,1686641283.640625
3.80,1686641283.65625
23.49,1686641283.671875
41.12,1686641283.6875
50.30,1686641283.703125
45.72,1686641283.71875
25.86,1686641283.734375
-4.41,1686641283.75
-37.40,1686641283.765625
-63.65,1686641283.78125
-75.92,1686641283.796875
-72.11,1686641283.8125
-55.64,1686641283.828125
-33.04,1686641283.84375
-10.57,1686641283.859375
7.86,1686641283.875
21.45,1686641283.890625
30.75,1686641283.90625
36.05,1686641283.921875
36.52,1686641283.9375
30.80,1686641283.953125
18.60,1686641283.96875
1.84,1686641283.984375
-15.54,1686641284.0
-29.08,1686641284.015625
-35.15,1686641284.03125
-31.92,1686641284.046875
-19.89,1686641284.0625
-1.57,1686641284.078125
19.38,1686641284.09375
39.06,1686641284.109375
54.00,1686641284.125
61.74,1686641284.140625
61.22,1686641284.15625
53.19,1686641284.171875
39.83,1686641284.1875
24.14,1686641284.203125
8.66,1686641284.21875
-5.39,1686641284.234375
-18.49,1686641284.25
-32.07,1686641284.265625
-47.26,1686641284.28125
-63.73,1686641284.296875
-79.47,1686641284.3125
-91.72,1686641284.328125
-98.13,1686641284.34375
-97.69,1686641284.359375
-90.72,1686641284.375
-78.12,1686641284.390625
-60.73,1686641284.40625
-39.30,1686641284.421875
-15.11,1686641284.4375
9.35,1686641284.453125
30.43,1686641284.46875
44.32,1686641284.484375
48.83,1686641284.5
44.56,1686641284.515625
34.87,1686641284.53125
24.56,1686641284.546875
17.83,1686641284.5625
16.70,1686641284.578125
20.60,1686641284.59375
26.96,1686641284.609375
32.48,1686641284.625
34.25,1686641284.640625
30.46,1686641284.65625
20.59,1686641284.671875
5.50,1686641284.6875
-12.81,1686641284.703125
-31.41,1686641284.71875
-47.02,1686641284.734375
-56.75,1686641284.75
-58.70,1686641284.765625
-52.51,1686641284.78125
-39.29,1686641284.796875
-21.16,1686641284.8125
-0.57,1686641284.828125
20.24,1686641284.84375
39.41,1686641284.859375
55.30,1686641284.875
66.23,1686641284.890625
70.61,1686641284.90625
67.32,1686641284.921875
56.46,1686641284.9375
39.65,1686641284.953125
19.80,1686641284.96875
0.19,1686641284.984375
-16.71,1686641285.0
-30.07,1686641285.015625
-40.61,1686641285.03125
-49.88,1686641285.046875
-59.21,1686641285.0625
-68.93,1686641285.078125
-78.39,1686641285.09375
-86.35,1686641285.109375
-91.75,1686641285.125
-94.02,1686641285.140625
-93.12,1686641285.15625
-89.34,1686641285.171875
-83.01,1686641285.1875
-74.56,1686641285.203125
-64.57,1686641285.21875
-53.89,1686641285.234375
-43.56,1686641285.25
-34.57,1686641285.265625
-27.56,1686641285.28125
-22.58,1686641285.296875
-19.13,1686641285.3125
-16.35,1686641285.328125
-13.33,1686641285.34375
-9.36,1686641285.359375
-4.26,1686641285.375
1.47,1686641285.390625
6.57,1686641285.40625
9.40,1686641285.421875
8.61,1686641285.4375
3.91,1686641285.453125
-3.38,1686641285.46875
-10.41,1686641285.484375
-13.81,1686641285.5
-10.99,1686641285.515625
-1.38,1686641285.53125
13.24,1686641285.546875
29.46,1686641285.5625
43.68,1686641285.578125
53.52,1686641285.59375
58.52,1686641285.609375
59.88,1686641285.625
59.48,1686641285.640625
58.95,1686641285.65625
59.04,1686641285.671875
59.72,1686641285.6875
60.63,1686641285.703125
61.54,1686641285.71875
62.48,1686641285.734375
63.49,1686641285.75
64.33,1686641285.765625
64.27,1686641285.78125
62.31,1686641285.796875
57.57,1686641285.8125
49.87,1686641285.828125
39.99,1686641285.84375
29.62,1686641285.859375
20.83,1686641285.875
15.35,1686641285.890625
13.99,1686641285.90625
16.48,1686641285.921875
21.66,1686641285.9375
27.97,1686641285.953125
34.06,1686641285.96875
39.15,1686641285.984375
43.29,1686641286.0
47.01,1686641286.015625
51.07,1686641286.03125
56.00,1686641286.046875
62.00,1686641286.0625
68.91,1686641286.078125
76.37,1686641286.09375
84.04,1686641286.109375
91.79,1686641286.125
99.91,1686641286.140625
108.81,1686641286.15625
118.71,1686641286.171875
129.37,1686641286.1875
139.95,1686641286.203125
149.07,1686641286.21875
155.01,1686641286.234375
156.10,1686641286.25
151.13,1686641286.265625
140.16,1686641286.28125
124.09,1686641286.296875
104.47,1686641286.3125
83.15,1686641286.328125
62.07,1686641286.34375
42.91,1686641286.359375
26.78,1686641286.375
14.04,1686641286.390625
4.29,1686641286.40625
-2.53,1686641286.421875
-6.99,1686641286.4375
-10.11,1686641286.453125
-13.07,1686641286.46875
-16.50,1686641286.484375
-20.27,1686641286.5
-23.74,1686641286.515625
-26.20,1686641286.53125
-27.20,1686641286.546875
-25.45,1686641286.5625
-20.48,1686641286.578125
-12.91,1686641286.59375
-4.02,1686641286.609375
5.00,1686641286.625
13.56,1686641286.640625
21.41,1686641286.65625
28.44,1686641286.671875
34.56,1686641286.6875
41.46,1686641286.703125
50.12,1686641286.71875
60.18,1686641286.734375
70.03,1686641286.75
77.86,1686641286.765625
82.88,1686641286.78125
85.41,1686641286.796875
86.76,1686641286.8125
78.06,1686641286.828125
56.06,1686641286.84375
23.65,1686641286.859375
-12.11,1686641286.875
-45.41,1686641286.890625
-74.18,1686641286.90625
-98.08,1686641286.921875
-117.04,1686641286.9375
-130.74,1686641286.953125
-139.19,1686641286.96875
-141.50,1686641286.984375
-138.12,1686641287.0
-130.82,1686641287.015625
-121.80,1686641287.03125
-113.69,1686641287.046875
-106.71,1686641287.0625
-100.66,1686641287.078125
-95.44,1686641287.09375
-91.19,1686641287.109375
-86.71,1686641287.125
-81.03,1686641287.140625
-73.89,1686641287.15625
-65.67,1686641287.171875
-57.38,1686641287.1875
-49.73,1686641287.203125
-43.48,1686641287.21875
-39.40,1686641287.234375
-38.16,1686641287.25
-37.97,1686641287.265625
-37.47,1686641287.28125
-36.08,1686641287.296875
-31.82,1686641287.3125
-24.28,1686641287.328125
-14.05,1686641287.34375
-2.48,1686641287.359375
9.13,1686641287.375
19.78,1686641287.390625
27.93,1686641287.40625
33.80,1686641287.421875
37.61,1686641287.4375
39.82,1686641287.453125
41.08,1686641287.46875
42.59,1686641287.484375
46.41,1686641287.5
53.47,1686641287.515625
63.05,1686641287.53125
72.81,1686641287.546875
79.36,1686641287.5625
79.37,1686641287.578125
71.11,1686641287.59375
55.07,1686641287.609375
34.01,1686641287.625
11.74,1686641287.640625
-8.54,1686641287.65625
-25.11,1686641287.671875
-37.86,1686641287.6875
-47.52,1686641287.703125
-54.93,1686641287.71875
-60.44,1686641287.734375
-64.04,1686641287.75
-65.66,1686641287.765625
-65.51,1686641287.78125
-64.30,1686641287.796875
-62.74,1686641287.8125
-61.20,1686641287.828125
-59.43,1686641287.84375
-56.94,1686641287.859375
-53.29,1686641287.875
-48.59,1686641287.890625
-43.56,1686641287.90625
-39.25,1686641287.921875
-36.61,1686641287.9375
-36.00,1686641287.953125
-37.01,1686641287.96875
-38.59,1686641287.984375
-39.62,1686641288.0
-39.30,1686641288.015625
-37.51,1686641288.03125
-34.78,1686641288.046875
-31.95,1686641288.0625
-29.91,1686641288.078125
-29.17,1686641288.09375
-29.78,1686641288.109375
-31.23,1686641288.125
-32.63,1686641288.140625
-32.95,1686641288.15625
-31.22,1686641288.171875
-26.85,1686641288.1875
-19.83,1686641288.203125
-10.79,1686641288.21875
-0.89,1686641288.234375
8.44,1686641288.25
15.97,1686641288.265625
20.90,1686641288.28125
23.07,1686641288.296875
22.91,1686641288.3125
21.21,1686641288.328125
18.80,1686641288.34375
16.36,1686641288.359375
14.24,1686641288.375
12.46,1686641288.390625
10.85,1686641288.40625
9.31,1686641288.421875
7.91,1686641288.4375
6.96,1686641288.453125
6.88,1686641288.46875
7.97,1686641288.484375
10.24,1686641288.5
13.32,1686641288.515625
16.64,1686641288.53125
19.59,1686641288.546875
21.86,1686641288.5625
23.41,1686641288.578125
24.43,1686641288.59375
25.09,1686641288.609375
25.36,1686641288.625
24.97,1686641288.640625
23.60,1686641288.65625
21.03,1686641288.671875
17.26,1686641288.6875
12.38,1686641288.703125
6.35,1686641288.71875
-1.04,1686641288.734375
-10.08,1686641288.75
-20.86,1686641288.765625
-32.89,1686641288.78125
-45.06,1686641288.796875
-55.83,1686641288.8125
-63.76,1686641288.828125
-68.03,1686641288.84375
-68.67,1686641288.859375
-66.47,1686641288.875
-62.59,1686641288.890625
-58.11,1686641288.90625
-53.72,1686641288.921875
-49.68,1686641288.9375
-45.95,1686641288.953125
-42.37,1686641288.96875
-38.80,1686641288.984375
-35.13,1686641289.0
-31.33,1686641289.015625
-27.40,1686641289.03125
-23.43,1686641289.046875
-19.58,1686641289.0625
-16.04,1686641289.078125
-12.91,1686641289.09375
-10.21,1686641289.109375
-7.77,1686641289.125
-5.42,1686641289.140625
-2.96,1686641289.15625
-0.35,1686641289.171875
2.39,1686641289.1875
5.13,1686641289.203125
7.68,1686641289.21875
9.78,1686641289.234375
11.12,1686641289.25
11.40,1686641289.265625
10.35,1686641289.28125
7.87,1686641289.296875
4.05,1686641289.3125
-0.80,1686641289.328125
-6.30,1686641289.34375
-12.05,1686641289.359375
-17.77,1686641289.375
-23.21,1686641289.390625
-28.11,1686641289.40625
-32.06,1686641289.421875
-34.46,1686641289.4375
-34.61,1686641289.453125
-31.89,1686641289.46875
-26.08,1686641289.484375
-17.53,1686641289.5
-7.17,1686641289.515625
3.74,1686641289.53125
14.04,1686641289.546875
23.07,1686641289.5625
30.78,1686641289.578125
37.59,1686641289.59375
43.90,1686641289.609375
49.71,1686641289.625
54.51,1686641289.640625
57.49,1686641289.65625
58.06,1686641289.671875
56.21,1686641289.6875
52.58,1686641289.703125
48.18,1686641289.71875
43.85,1686641289.734375
39.98,1686641289.75
36.37,1686641289.765625
32.62,1686641289.78125
28.54,1686641289.796875
24.40,1686641289.8125
20.81,1686641289.828125
18.40,1686641289.84375
17.46,1686641289.859375
17.85,1686641289.875
19.05,1686641289.890625
20.41,1686641289.90625
21.19,1686641289.921875
20.48,1686641289.9375
17.16,1686641289.953125
10.02,1686641289.96875
-1.73,1686641289.984375
-17.81,1686641290.0
-36.51,1686641290.015625
-54.84,1686641290.03125
-69.33,1686641290.046875
-77.10,1686641290.0625
-76.70,1686641290.078125
-68.33,1686641290.09375
-53.50,1686641290.109375
-34.26,1686641290.125
-12.69,1686641290.140625
9.47,1686641290.15625
30.73,1686641290.171875
49.89,1686641290.1875
65.97,1686641290.203125
78.37,1686641290.21875
86.97,1686641290.234375
92.06,1686641290.25
94.17,1686641290.265625
93.81,1686641290.28125
91.39,1686641290.296875
87.20,1686641290.3125
81.62,1686641290.328125
75.08,1686641290.34375
68.17,1686641290.359375
61.43,1686641290.375
55.24,1686641290.390625
49.78,1686641290.40625
45.01,1686641290.421875
40.88,1686641290.4375
37.36,1686641290.453125
34.46,1686641290.46875
32.17,1686641290.484375
30.30,1686641290.5
28.49,1686641290.515625
26.19,1686641290.53125
22.88,1686641290.546875
18.33,1686641290.5625
12.77,1686641290.578125
6.91,1686641290.59375
1.70,1686641290.609375
-2.09,1686641290.625
-4.29,1686641290.640625
-5.46,1686641290.65625
-6.73,1686641290.671875
-9.22,1686641290.6875
-13.44,1686641290.703125
-18.94,1686641290.71875
-24.48,1686641290.734375
-28.55,1686641290.75
-30.13,1686641290.765625
-29.02,1686641290.78125
-25.89,1686641290.796875
-21.71,1686641290.8125
-17.16,1686641290.828125
-12.36,1686641290.84375
-6.98,1686641290.859375
-0.69,1686641290.875
6.33,1686641290.890625
13.31,1686641290.90625
19.12,1686641290.921875
22.95,1686641290.9375
24.72,1686641290.953125
25.23,1686641290.96875
25.81,1686641290.984375
27.65,1686641291.0
31.24,1686641291.015625
36.09,1686641291.03125
40.92,1686641291.046875
44.20,1686641291.0625
44.75,1686641291.078125
42.13,1686641291.09375
36.73,1686641291.109375
29.45,1686641291.125
21.32,1686641291.140625
13.15,1686641291.15625
5.43,1686641291.171875
-1.58,1686641291.1875
-7.72,1686641291.203125
-12.84,1686641291.21875
-16.81,1686641291.234375
-19.67,1686641291.25
-21.70,1686641291.265625
-23.32,1686641291.28125
-25.05,1686641291.296875
-27.24,1686641291.3125
-30.02,1686641291.328125
-33.26,1686641291.34375
-36.63,1686641291.359375
-39.64,1686641291.375
-41.72,1686641291.390625
-42.32,1686641291.40625
-41.00,1686641291.421875
-37.55,1686641291.4375
-32.11,1686641291.453125
-25.17,1686641291.46875
-17.54,1686641291.484375
-10.11,1686641291.5
-3.62,1686641291.515625
1.54,1686641291.53125
5.42,1686641291.546875
8.29,1686641291.5625
10.48,1686641291.578125
12.16,1686641291.59375
13.28,1686641291.609375
13.70,1686641291.625
13.40,1686641291.640625
12.68,1686641291.65625
12.05,1686641291.671875
12.06,1686641291.6875
12.95,1686641291.703125
14.51,1686641291.71875
16.07,1686641291.734375
16.85,1686641291.75
16.29,1686641291.765625
14.40,1686641291.78125
11.73,1686641291.796875
9.11,1686641291.8125
7.33,1686641291.828125
6.76,1686641291.84375
7.26,1686641291.859375
8.26,1686641291.875
9.11,1686641291.890625
9.34,1686641291.90625
8.95,1686641291.921875
8.40,1686641291.9375
8.39,1686641291.953125
9.64,1686641291.96875
12.55,1686641291.984375
17.09,1686641292.0
22.78,1686641292.015625
28.92,1686641292.03125
34.94,1686641292.046875
40.58,1686641292.0625
46.12,1686641292.078125
52.19,1686641292.09375
59.41,1686641292.109375
68.05,1686641292.125
77.94,1686641292.140625
88.71,1686641292.15625
100.14,1686641292.171875
112.15,1686641292.1875
124.49,1686641292.203125
136.12,1686641292.21875
144.78,1686641292.234375
147.30,1686641292.25
140.42,1686641292.265625
121.67,1686641292.28125
90.06,1686641292.296875
46.23,1686641292.3125
-7.67,1686641292.328125
-67.86,1686641292.34375
-128.93,1686641292.359375
-183.94,1686641292.375
-225.29,1686641292.390625
-246.31,1686641292.40625
-243.29,1686641292.421875
-217.04,1686641292.4375
-173.45,1686641292.453125
-122.33,1686641292.46875
-74.87,1686641292.484375
-40.60,1686641292.5
-24.76,1686641292.515625
-27.31,1686641292.53125
-43.50,1686641292.546875
-66.22,1686641292.5625
-88.70,1686641292.578125
-106.66,1686641292.59375
-118.83,1686641292.609375
-126.19,1686641292.625
-130.28,1686641292.640625
-131.99,1686641292.65625
-131.23,1686641292.671875
-127.74,1686641292.6875
-121.84,1686641292.703125
-114.68,1686641292.71875
-107.63,1686641292.734375
-101.48,1686641292.75
-95.88,1686641292.765625
-89.69,1686641292.78125
-81.64,1686641292.796875
-71.09,1686641292.8125
-58.32,1686641292.828125
-44.36,1686641292.84375
-30.53,1686641292.859375
-18.05,1686641292.875
-7.73,1686641292.890625
0.07,1686641292.90625
5.48,1686641292.921875
9.04,1686641292.9375
11.46,1686641292.953125
13.38,1686641292.96875
15.08,1686641292.984375
16.45,1686641293.0
17.07,1686641293.015625
16.63,1686641293.03125
15.14,1686641293.046875
13.05,1686641293.0625
11.12,1686641293.078125
10.00,1686641293.09375
10.00,1686641293.109375
10.97,1686641293.125
12.47,1686641293.140625
14.00,1686641293.15625
15.22,1686641293.171875
16.07,1686641293.1875
16.63,1686641293.203125
17.10,1686641293.21875
17.52,1686641293.234375
17.80,1686641293.25
17.61,1686641293.265625
16.44,1686641293.28125
13.81,1686641293.296875
9.32,1686641293.3125
2.93,1686641293.328125
-5.00,1686641293.34375
-13.73,1686641293.359375
-22.33,1686641293.375
-29.87,1686641293.390625
-35.64,1686641293.40625
-39.23,1686641293.421875
-40.48,1686641293.4375
-39.45,1686641293.453125
-36.37,1686641293.46875
-31.58,1686641293.484375
-25.57,1686641293.5
-18.95,1686641293.515625
-12.38,1686641293.53125
-6.44,1686641293.546875
-1.57,1686641293.5625
1.98,1686641293.578125
4.13,1686641293.59375
4.94,1686641293.609375
4.58,1686641293.625
3.30,1686641293.640625
1.41,1686641293.65625
-0.73,1686641293.671875
-2.79,1686641293.6875
-4.49,1686641293.703125
-5.61,1686641293.71875
-6.06,1686641293.734375
-5.81,1686641293.75
-4.94,1686641293.765625
-3.59,1686641293.78125
-1.93,1686641293.796875
-0.11,1686641293.8125
1.74,1686641293.828125
3.49,1686641293.84375
5.00,1686641293.859375
6.11,1686641293.875
6.68,1686641293.890625
6.69,1686641293.90625
6.28,1686641293.921875
5.77,1686641293.9375
5.58,1686641293.953125
6.15,1686641293.96875
7.85,1686641293.984375
10.94,1686641294.0
15.49,1686641294.015625
21.37,1686641294.03125
28.21,1686641294.046875
35.38,1686641294.0625
42.21,1686641294.078125
48.14,1686641294.09375
52.93,1686641294.109375
56.78,1686641294.125
60.14,1686641294.140625
63.52,1686641294.15625
67.20,1686641294.171875
71.15,1686641294.1875
75.00,1686641294.203125
78.33,1686641294.21875
80.79,1686641294.234375
82.17,1686641294.25
82.35,1686641294.265625
81.27,1686641294.28125
78.84,1686641294.296875
75.02,1686641294.3125
69.88,1686641294.328125
63.60,1686641294.34375
56.47,1686641294.359375
48.84,1686641294.375
41.08,1686641294.390625
33.54,1686641294.40625
26.58,1686641294.421875
20.51,1686641294.4375
15.46,1686641294.453125
11.30,1686641294.46875
7.60,1686641294.484375
3.79,1686641294.5
-0.62,1686641294.515625
-5.77,1686641294.53125
-11.38,1686641294.546875
-16.88,1686641294.5625
-21.72,1686641294.578125
-25.71,1686641294.59375
-29.17,1686641294.609375
-32.96,1686641294.625
-38.19,1686641294.640625
-45.94,1686641294.65625
-56.95,1686641294.671875
-71.33,1686641294.6875
-88.45,1686641294.703125
-106.89,1686641294.71875
-124.60,1686641294.734375
-139.28,1686641294.75
-149.00,1686641294.765625
-152.71,1686641294.78125
-150.53,1686641294.796875
-143.66,1686641294.8125
-133.89,1686641294.828125
-122.93,1686641294.84375
-111.86,1686641294.859375
-100.90,1686641294.875
-89.46,1686641294.890625
-76.69,1686641294.90625
-61.95,1686641294.921875
-45.25,1686641294.9375
-27.34,1686641294.953125
-9.43,1686641294.96875
7.34,1686641294.984375
22.34,1686641295.0
35.73,1686641295.015625
48.32,1686641295.03125
61.12,1686641295.046875
74.76,1686641295.0625
88.98,1686641295.078125
102.42,1686641295.09375
112.99,1686641295.109375
118.49,1686641295.125
117.42,1686641295.140625
109.58,1686641295.15625
96.18,1686641295.171875
79.35,1686641295.1875
61.41,1686641295.203125
44.07,1686641295.21875
28.17,1686641295.234375
13.87,1686641295.25
1.27,1686641295.265625
-9.14,1686641295.28125
-16.46,1686641295.296875
-19.87,1686641295.3125
-19.24,1686641295.328125
-15.45,1686641295.34375
-10.16,1686641295.359375
-5.05,1686641295.375
-1.15,1686641295.390625
1.41,1686641295.40625
3.14,1686641295.421875
4.58,1686641295.4375
5.78,1686641295.453125
6.20,1686641295.46875
5.12,1686641295.484375
2.08,1686641295.5
-2.88,1686641295.515625
-9.46,1686641295.53125
-17.51,1686641295.546875
-27.49,1686641295.5625
-40.23,1686641295.578125
-56.49,1686641295.59375
-76.25,1686641295.609375
-98.43,1686641295.625
-121.05,1686641295.640625
-141.79,1686641295.65625
-158.34,1686641295.671875
-168.43,1686641295.6875
-169.59,1686641295.703125
-159.25,1686641295.71875
-135.47,1686641295.734375
-98.12,1686641295.75
-49.83,1686641295.765625
4.11,1686641295.78125
57.16,1686641295.796875
103.66,1686641295.8125
140.45,1686641295.828125
167.22,1686641295.84375
185.47,1686641295.859375
196.66,1686641295.875
201.08,1686641295.890625
197.69,1686641295.90625
185.29,1686641295.921875
163.88,1686641295.9375
135.43,1686641295.953125
103.61,1686641295.96875
72.61,1686641295.984375
45.72,1686641296.0
24.47,1686641296.015625
8.49,1686641296.03125
-3.80,1686641296.046875
-14.25,1686641296.0625
-24.14,1686641296.078125
-33.76,1686641296.09375
-42.62,1686641296.109375
-49.92,1686641296.125
-55.14,1686641296.140625
-58.31,1686641296.15625
-59.99,1686641296.171875
-60.83,1686641296.1875
-61.22,1686641296.203125
-61.05,1686641296.21875
-59.94,1686641296.234375
-57.52,1686641296.25
-53.91,1686641296.265625
-49.83,1686641296.28125
-46.39,1686641296.296875
-44.65,1686641296.3125
-45.27,1686641296.328125
-48.25,1686641296.34375
-53.02,1686641296.359375
-58.71,1686641296.375
-64.41,1686641296.390625
-69.28,1686641296.40625
-72.56,1686641296.421875
-73.57,1686641296.4375
-71.76,1686641296.453125
-66.87,1686641296.46875
-59.17,1686641296.484375
-49.49,1686641296.5
-39.02,1686641296.515625
-28.91,1686641296.53125
-19.92,1686641296.546875
-12.27,1686641296.5625
-5.66,1686641296.578125
0.39,1686641296.59375
6.28,1686641296.609375
12.13,1686641296.625
17.86,1686641296.640625
23.33,1686641296.65625
28.49,1686641296.671875
33.41,1686641296.6875
38.26,1686641296.703125
43.18,1686641296.71875
48.25,1686641296.734375
53.46,1686641296.75
58.71,1686641296.765625
63.73,1686641296.78125
68.07,1686641296.796875
71.11,1686641296.8125
72.18,1686641296.828125
70.84,1686641296.84375
67.05,1686641296.859375
61.33,1686641296.875
54.51,1686641296.890625
47.48,1686641296.90625
40.94,1686641296.921875
35.21,1686641296.9375
30.32,1686641296.953125
26.15,1686641296.96875
22.57,1686641296.984375
19.43,1686641297.0
16.54,1686641297.015625
13.62,1686641297.03125
10.37,1686641297.046875
6.59,1686641297.0625
2.28,1686641297.078125
-2.37,1686641297.09375
-7.20,1686641297.109375
-12.21,1686641297.125
-17.64,1686641297.140625
-23.73,1686641297.15625
-30.48,1686641297.171875
-37.36,1686641297.1875
-43.29,1686641297.203125
-47.03,1686641297.21875
-47.53,1686641297.234375
-44.39,1686641297.25
-37.95,1686641297.265625
-29.14,1686641297.28125
-19.17,1686641297.296875
-9.14,1686641297.3125
0.07,1686641297.328125
7.91,1686641297.34375
14.11,1686641297.359375
18.67,1686641297.375
21.72,1686641297.390625
23.56,1686641297.40625
24.46,1686641297.421875
24.61,1686641297.4375
24.12,1686641297.453125
23.03,1686641297.46875
21.44,1686641297.484375
19.52,1686641297.5
17.51,1686641297.515625
15.64,1686641297.53125
14.05,1686641297.546875
12.85,1686641297.5625
12.07,1686641297.578125
11.81,1686641297.59375
12.16,1686641297.609375
13.18,1686641297.625
14.86,1686641297.640625
17.06,1686641297.65625
19.55,1686641297.671875
22.09,1686641297.6875
24.45,1686641297.703125
26.48,1686641297.71875
28.12,1686641297.734375
29.31,1686641297.75
29.92,1686641297.765625
29.65,1686641297.78125
28.08,1686641297.796875
24.77,1686641297.8125
19.45,1686641297.828125
12.17,1686641297.84375
3.36,1686641297.859375
-6.20,1686641297.875
-15.59,1686641297.890625
-23.88,1686641297.90625
-30.32,1686641297.921875
-34.33,1686641297.9375
-35.54,1686641297.953125
-33.75,1686641297.96875
-28.97,1686641297.984375
-21.50,1686641298.0
-11.98,1686641298.015625
-1.26,1686641298.03125
9.68,1686641298.046875
20.00,1686641298.0625
29.03,1686641298.078125
36.31,1686641298.09375
41.52,1686641298.109375
44.42,1686641298.125
44.85,1686641298.140625
42.93,1686641298.15625
39.09,1686641298.171875
34.15,1686641298.1875
29.13,1686641298.203125
24.96,1686641298.21875
22.25,1686641298.234375
21.18,1686641298.25
21.58,1686641298.265625
23.07,1686641298.28125
25.28,1686641298.296875
27.83,1686641298.3125
30.34,1686641298.328125
32.42,1686641298.34375
33.70,1686641298.359375
33.92,1686641298.375
32.99,1686641298.390625
30.95,1686641298.40625
27.85,1686641298.421875
23.69,1686641298.4375
18.43,1686641298.453125
12.16,1686641298.46875
5.14,1686641298.484375
-2.09,1686641298.5
-8.90,1686641298.515625
-14.66,1686641298.53125
-19.02,1686641298.546875
-21.93,1686641298.5625
-23.63,1686641298.578125
-24.56,1686641298.59375
-25.23,1686641298.609375
-26.12,1686641298.625
-27.49,1686641298.640625
-29.32,1686641298.65625
-31.17,1686641298.671875
-32.30,1686641298.6875
-31.78,1686641298.703125
-28.91,1686641298.71875
-23.44,1686641298.734375
-15.70,1686641298.75
-6.52,1686641298.765625
3.08,1686641298.78125
12.23,1686641298.796875
20.38,1686641298.8125
27.37,1686641298.828125
33.26,1686641298.84375
38.11,1686641298.859375
41.92,1686641298.875
44.59,1686641298.890625
46.07,1686641298.90625
46.52,1686641298.921875
46.28,1686641298.9375
45.80,1686641298.953125
45.40,1686641298.96875
45.17,1686641298.984375
44.90,1686641299.0
44.21,1686641299.015625
42.79,1686641299.03125
40.48,1686641299.046875
37.40,1686641299.0625
33.74,1686641299.078125
29.75,1686641299.09375
25.55,1686641299.109375
21.17,1686641299.125
16.57,1686641299.140625
11.62,1686641299.15625
6.20,1686641299.171875
0.19,1686641299.1875
-6.41,1686641299.203125
-13.45,1686641299.21875
-20.60,1686641299.234375
-27.41,1686641299.25
-33.53,1686641299.265625
-38.81,1686641299.28125
-43.42,1686641299.296875
-47.72,1686641299.3125
-52.16,1686641299.328125
-57.02,1686641299.34375
-62.32,1686641299.359375
-67.74,1686641299.375
-72.71,1686641299.390625
-76.43,1686641299.40625
-78.07,1686641299.421875
-76.88,1686641299.4375
-72.44,1686641299.453125
-64.79,1686641299.46875
-54.50,1686641299.484375
-42.63,1686641299.5
-30.38,1686641299.515625
-18.89,1686641299.53125
-8.94,1686641299.546875
-0.82,1686641299.5625
5.55,1686641299.578125
10.46,1686641299.59375
14.18,1686641299.609375
16.89,1686641299.625
18.67,1686641299.640625
19.64,1686641299.65625
20.00,1686641299.671875
20.05,1686641299.6875
20.06,1686641299.703125
20.18,1686641299.71875
20.36,1686641299.734375
20.39,1686641299.75
20.03,1686641299.765625
19.14,1686641299.78125
17.79,1686641299.796875
16.27,1686641299.8125
14.97,1686641299.828125
14.22,1686641299.84375
14.19,1686641299.859375
14.74,1686641299.875
15.51,1686641299.890625
16.00,1686641299.90625
15.78,1686641299.921875
14.65,1686641299.9375
12.71,1686641299.953125
10.34,1686641299.96875
7.98,1686641299.984375
5.97,1686641300.0
4.42,1686641300.015625
3.19,1686641300.03125
1.97,1686641300.046875
0.41,1686641300.0625
-1.78,1686641300.078125
-4.75,1686641300.09375
-8.40,1686641300.109375
-12.40,1686641300.125
-16.19,1686641300.140625
-18.96,1686641300.15625
-19.92,1686641300.171875
-18.43,1686641300.1875
-14.28,1686641300.203125
-7.83,1686641300.21875
0.06,1686641300.234375
8.24,1686641300.25
15.62,1686641300.265625
21.46,1686641300.28125
25.54,1686641300.296875
28.05,1686641300.3125
29.40,1686641300.328125
29.90,1686641300.34375
29.68,1686641300.359375
28.70,1686641300.375
26.89,1686641300.390625
24.30,1686641300.40625
21.15,1686641300.421875
17.80,1686641300.4375
14.61,1686641300.453125
11.83,1686641300.46875
9.51,1686641300.484375
7.53,1686641300.5
5.72,1686641300.515625
3.92,1686641300.53125
2.12,1686641300.546875
0.40,1686641300.5625
-1.01,1686641300.578125
-1.94,1686641300.59375
-2.34,1686641300.609375
-2.34,1686641300.625
-2.25,1686641300.640625
-2.43,1686641300.65625
-3.20,1686641300.671875
-4.68,1686641300.6875
-6.79,1686641300.703125
-9.25,1686641300.71875
-11.76,1686641300.734375
-14.06,1686641300.75
-16.09,1686641300.765625
-17.91,1686641300.78125
-19.73,1686641300.796875
-21.77,1686641300.8125
-24.20,1686641300.828125
-27.06,1686641300.84375
-30.27,1686641300.859375
-33.57,1686641300.875
-36.46,1686641300.890625
-38.27,1686641300.90625
-38.24,1686641300.921875
-35.81,1686641300.9375
-30.74,1686641300.953125
-23.34,1686641300.96875
-14.38,1686641300.984375
-4.90,1686641301.0
4.11,1686641301.015625
11.91,1686641301.03125
18.14,1686641301.046875
22.74,1686641301.0625
25.90,1686641301.078125
27.87,1686641301.09375
28.97,1686641301.109375
29.50,1686641301.125
29.72,1686641301.140625
29.80,1686641301.15625
29.81,1686641301.171875
29.73,1686641301.1875
29.51,1686641301.203125
29.08,1686641301.21875
28.44,1686641301.234375
27.63,1686641301.25
26.75,1686641301.265625
25.84,1686641301.28125
24.90,1686641301.296875
23.87,1686641301.3125
22.65,1686641301.328125
21.18,1686641301.34375
19.49,1686641301.359375
17.69,1686641301.375
15.89,1686641301.390625
14.14,1686641301.40625
12.40,1686641301.421875
10.58,1686641301.4375
8.57,1686641301.453125
6.36,1686641301.46875
4.08,1686641301.484375
1.87,1686641301.5
-0.14,1686641301.515625
-1.93,1686641301.53125
-3.61,1686641301.546875
-5.35,1686641301.5625
-7.36,1686641301.578125
-9.81,1686641301.59375
-12.84,1686641301.609375
-16.49,1686641301.625
-20.65,1686641301.640625
-24.96,1686641301.65625
-28.78,1686641301.671875
-31.32,1686641301.6875
-31.81,1686641301.703125
-29.76,1686641301.71875
-25.19,1686641301.734375
-18.62,1686641301.75
-10.95,1686641301.765625
-3.21,1686641301.78125
3.74,1686641301.796875
9.40,1686641301.8125
13.67,1686641301.828125
16.71,1686641301.84375
18.81,1686641301.859375
20.18,1686641301.875
20.93,1686641301.890625
21.04,1686641301.90625
20.46,1686641301.921875
19.17,1686641301.9375
17.29,1686641301.953125
15.08,1686641301.96875
12.93,1686641301.984375
11.32,1686641302.0
10.70,1686641302.015625
11.34,1686641302.03125
13.28,1686641302.046875
16.20,1686641302.0625
19.58,1686641302.078125
22.76,1686641302.09375
25.11,1686641302.109375
26.28,1686641302.125
26.17,1686641302.140625
24.96,1686641302.15625
22.95,1686641302.171875
20.39,1686641302.1875
17.40,1686641302.203125
13.94,1686641302.21875
9.92,1686641302.234375
5.33,1686641302.25
0.36,1686641302.265625
-4.62,1686641302.28125
-9.09,1686641302.296875
-12.57,1686641302.3125
-14.79,1686641302.328125
-15.69,1686641302.34375
-15.52,1686641302.359375
-14.73,1686641302.375
-13.87,1686641302.390625
-13.48,1686641302.40625
-13.96,1686641302.421875
-15.45,1686641302.4375
-17.80,1686641302.453125
-20.53,1686641302.46875
-22.98,1686641302.484375
-24.47,1686641302.5
-24.50,1686641302.515625
-22.92,1686641302.53125
-19.89,1686641302.546875
-15.88,1686641302.5625
-11.44,1686641302.578125
-7.01,1686641302.59375
-2.82,1686641302.609375
1.14,1686641302.625
5.00,1686641302.640625
8.83,1686641302.65625
12.56,1686641302.671875
15.95,1686641302.6875
18.69,1686641302.703125
20.55,1686641302.71875
21.46,1686641302.734375
21.48,1686641302.75
20.73,1686641302.765625
19.37,1686641302.78125
17.50,1686641302.796875
15.24,1686641302.8125
12.76,1686641302.828125
10.29,1686641302.84375
8.13,1686641302.859375
6.55,1686641302.875
5.65,1686641302.890625
5.37,1686641302.90625
5.47,1686641302.921875
5.62,1686641302.9375
5.52,1686641302.953125
4.99,1686641302.96875
4.04,1686641302.984375
2.82,1686641303.0
1.52,1686641303.015625
0.26,1686641303.03125
-1.01,1686641303.046875
-2.53,1686641303.0625
-4.56,1686641303.078125
-7.28,1686641303.09375
-10.69,1686641303.109375
-14.59,1686641303.125
-18.68,1686641303.140625
-22.67,1686641303.15625
-26.31,1686641303.171875
-29.45,1686641303.1875
-32.04,1686641303.203125
-34.07,1686641303.21875
-35.58,1686641303.234375
-36.66,1686641303.25
-37.36,1686641303.265625
-37.65,1686641303.28125
-37.34,1686641303.296875
-36.16,1686641303.3125
-33.80,1686641303.328125
-30.12,1686641303.34375
-25.21,1686641303.359375
-19.42,1686641303.375
-13.28,1686641303.390625
-7.30,1686641303.40625
-1.87,1686641303.421875
2.82,1686641303.4375
6.79,1686641303.453125
10.15,1686641303.46875
12.99,1686641303.484375
15.40,1686641303.5
17.40,1686641303.515625
19.02,1686641303.53125
20.33,1686641303.546875
21.49,1686641303.5625
22.61,1686641303.578125
23.78,1686641303.59375
24.99,1686641303.609375
26.13,1686641303.625
27.02,1686641303.640625
27.59,1686641303.65625
27.80,1686641303.671875
27.74,1686641303.6875
27.54,1686641303.703125
27.30,1686641303.71875
27.10,1686641303.734375
26.93,1686641303.75
26.77,1686641303.765625
26.56,1686641303.78125
26.21,1686641303.796875
25.62,1686641303.8125
24.73,1686641303.828125
23.50,1686641303.84375
21.94,1686641303.859375
20.09,1686641303.875
17.96,1686641303.890625
15.54,1686641303.90625
12.79,1686641303.921875
9.69,1686641303.9375
6.24,1686641303.953125
2.52,1686641303.96875
-1.36,1686641303.984375
-5.34,1686641304.0
-9.42,1686641304.015625
-13.65,1686641304.03125
-18.07,1686641304.046875
-22.71,1686641304.0625
-27.47,1686641304.078125
-32.13,1686641304.09375
-36.35,1686641304.109375
-39.67,1686641304.125
-41.64,1686641304.140625
-41.90,1686641304.15625
-40.33,1686641304.171875
-37.13,1686641304.1875
-32.75,1686641304.203125
-27.79,1686641304.21875
-22.78,1686641304.234375
-17.99,1686641304.25
-13.48,1686641304.265625
-9.12,1686641304.28125
-4.83,1686641304.296875
-0.68,1686641304.3125
3.10,1686641304.328125
6.17,1686641304.34375
8.29,1686641304.359375
9.40,1686641304.375
9.67,1686641304.390625
9.43,1686641304.40625
8.97,1686641304.421875
8.49,1686641304.4375
8.01,1686641304.453125
7.48,1686641304.46875
6.86,1686641304.484375
6.23,1686641304.5
5.73,1686641304.515625
5.57,1686641304.53125
5.80,1686641304.546875
6.31,1686641304.5625
6.83,1686641304.578125
7.02,1686641304.59375
6.61,1686641304.609375
5.52,1686641304.625
3.82,1686641304.640625
1.75,1686641304.65625
-0.41,1686641304.671875
-2.39,1686641304.6875
-4.02,1686641304.703125
-5.28,1686641304.71875
-6.28,1686641304.734375
-7.27,1686641304.75
-8.46,1686641304.765625
-9.95,1686641304.78125
-11.66,1686641304.796875
-13.33,1686641304.8125
-14.70,1686641304.828125
-15.59,1686641304.84375
-15.99,1686641304.859375
-16.08,1686641304.875
-16.11,1686641304.890625
-16.30,1686641304.90625
-16.77,1686641304.921875
-17.49,1686641304.9375
-18.29,1686641304.953125
-18.95,1686641304.96875
-19.19,1686641304.984375
-18.72,1686641305.0
-17.36,1686641305.015625
-15.00,1686641305.03125
-11.66,1686641305.046875
-7.48,1686641305.0625
-2.72,1686641305.078125
2.23,1686641305.09375
6.92,1686641305.109375
10.94,1686641305.125
13.97,1686641305.140625
15.95,1686641305.15625
17.10,1686641305.171875
17.84,1686641305.1875
18.64,1686641305.203125
19.85,1686641305.21875
21.60,1686641305.234375
23.80,1686641305.25
26.24,1686641305.265625
28.67,1686641305.28125
30.88,1686641305.296875
32.72,1686641305.3125
34.16,1686641305.328125
35.33,1686641305.34375
36.55,1686641305.359375
38.27,1686641305.375
40.92,1686641305.390625
44.73,1686641305.40625
49.54,1686641305.421875
54.82,1686641305.4375
59.84,1686641305.453125
63.83,1686641305.46875
66.24,1686641305.484375
66.79,1686641305.5
65.55,1686641305.515625
62.82,1686641305.53125
59.05,1686641305.546875
54.68,1686641305.5625
49.98,1686641305.578125
44.95,1686641305.59375
39.31,1686641305.609375
32.80,1686641305.625
25.50,1686641305.640625
17.98,1686641305.65625
11.25,1686641305.671875
6.28,1686641305.6875
3.45,1686641305.703125
2.30,1686641305.71875
1.62,1686641305.734375
-0.01,1686641305.75
-3.60,1686641305.765625
-9.41,1686641305.78125
-16.89,1686641305.796875
-25.09,1686641305.8125
-33.02,1686641305.828125
-39.86,1686641305.84375
-44.98,1686641305.859375
-47.93,1686641305.875
-48.39,1686641305.890625
-46.34,1686641305.90625
-42.21,1686641305.921875
-36.81,1686641305.9375
-31.17,1686641305.953125
-26.19,1686641305.96875
-22.39,1686641305.984375
-19.80,1686641306.0
-18.01,1686641306.015625
-16.35,1686641306.03125
-14.16,1686641306.046875
-10.92,1686641306.0625
-6.44,1686641306.078125
-0.94,1686641306.09375
5.01,1686641306.109375
10.62,1686641306.125
15.18,1686641306.140625
18.31,1686641306.15625
20.14,1686641306.171875
21.23,1686641306.1875
22.33,1686641306.203125
24.05,1686641306.21875
26.59,1686641306.234375
29.70,1686641306.25
32.77,1686641306.265625
35.06,1686641306.28125
36.07,1686641306.296875
35.60,1686641306.3125
33.83,1686641306.328125
31.19,1686641306.34375
28.15,1686641306.359375
25.02,1686641306.375
21.95,1686641306.390625
18.94,1686641306.40625
15.93,1686641306.421875
12.89,1686641306.4375
9.80,1686641306.453125
6.58,1686641306.46875
3.09,1686641306.484375
-0.83,1686641306.5
-5.20,1686641306.515625
-9.82,1686641306.53125
-14.25,1686641306.546875
-18.05,1686641306.5625
-20.90,1686641306.578125
-22.90,1686641306.59375
-24.47,1686641306.609375
-26.18,1686641306.625
-28.52,1686641306.640625
-31.61,1686641306.65625
-35.21,1686641306.671875
-38.82,1686641306.6875
-41.88,1686641306.703125
-43.99,1686641306.71875
-45.01,1686641306.734375
-45.01,1686641306.75
-44.24,1686641306.765625
-43.06,1686641306.78125
-41.80,1686641306.796875
-40.80,1686641306.8125
-40.31,1686641306.828125
-40.49,1686641306.84375
-41.33,1686641306.859375
-42.71,1686641306.875
-44.41,1686641306.890625
-46.17,1686641306.90625
-47.76,1686641306.921875
-48.97,1686641306.9375
-49.63,1686641306.953125
-49.56,1686641306.96875
-48.59,1686641306.984375
-46.71,1686641307.0
-44.02,1686641307.015625
-40.80,1686641307.03125
-37.40,1686641307.046875
-34.16,1686641307.0625
-31.21,1686641307.078125
-28.61,1686641307.09375
-26.29,1686641307.109375
-24.24,1686641307.125
-22.49,1686641307.140625
-21.18,1686641307.15625
-20.38,1686641307.171875
-20.10,1686641307.1875
-20.20,1686641307.203125
-20.49,1686641307.21875
-20.77,1686641307.234375
-20.93,1686641307.25
-20.94,1686641307.265625
-20.88,1686641307.28125
-20.85,1686641307.296875
-20.96,1686641307.3125
-21.28,1686641307.328125
-21.87,1686641307.34375
-22.71,1686641307.359375
-23.73,1686641307.375
-24.74,1686641307.390625
-25.46,1686641307.40625
-25.56,1686641307.421875
-24.74,1686641307.4375
-22.83,1686641307.453125
-19.86,1686641307.46875
-16.07,1686641307.484375
-11.80,1686641307.5
-7.43,1686641307.515625
-3.29,1686641307.53125
0.40,1686641307.546875
3.51,1686641307.5625
5.98,1686641307.578125
7.81,1686641307.59375
9.03,1686641307.609375
9.69,1686641307.625
9.81,1686641307.640625
9.44,1686641307.65625
8.65,1686641307.671875
7.56,1686641307.6875
6.36,1686641307.703125
5.24,1686641307.71875
4.33,1686641307.734375
3.65,1686641307.75
3.13,1686641307.765625
2.66,1686641307.78125
2.16,1686641307.796875
1.63,1686641307.8125
1.13,1686641307.828125
0.69,1686641307.84375
0.31,1686641307.859375
-0.05,1686641307.875
-0.48,1686641307.890625
-1.07,1686641307.90625
-1.87,1686641307.921875
-2.90,1686641307.9375
-4.14,1686641307.953125
-5.49,1686641307.96875
-6.82,1686641307.984375
-8.01,1686641308.0
-8.97,1686641308.015625
-9.71,1686641308.03125
-10.32,1686641308.046875
-10.98,1686641308.0625
-11.90,1686641308.078125
-13.22,1686641308.09375
-15.02,1686641308.109375
-17.18,1686641308.125
-19.42,1686641308.140625
-21.32,1686641308.15625
-22.40,1686641308.171875
-22.27,1686641308.1875
-20.71,1686641308.203125
-17.75,1686641308.21875
-13.68,1686641308.234375
-8.90,1686641308.25
-3.89,1686641308.265625
0.96,1686641308.28125
5.34,1686641308.296875
9.06,1686641308.3125
12.03,1686641308.328125
14.23,1686641308.34375
15.70,1686641308.359375
16.58,1686641308.375
17.05,1686641308.390625
17.29,1686641308.40625
17.49,1686641308.421875
17.76,1686641308.4375
18.13,1686641308.453125
18.55,1686641308.46875
18.90,1686641308.484375
19.08,1686641308.5
19.03,1686641308.515625
18.73,1686641308.53125
18.21,1686641308.546875
17.52,1686641308.5625
16.66,1686641308.578125
15.66,1686641308.59375
14.56,1686641308.609375
13.43,1686641308.625
12.35,1686641308.640625
11.36,1686641308.65625
10.43,1686641308.671875
9.43,1686641308.6875
8.24,1686641308.703125
6.74,1686641308.71875
4.94,1686641308.734375
2.91,1686641308.75
0.82,1686641308.765625
-1.18,1686641308.78125
-2.95,1686641308.796875
-4.45,1686641308.8125
-5.71,1686641308.828125
-6.82,1686641308.84375
-7.97,1686641308.859375
-9.35,1686641308.875
-11.13,1686641308.890625
-13.37,1686641308.90625
-15.87,1686641308.921875
-18.20,1686641308.9375
-19.75,1686641308.953125
-19.93,1686641308.96875
-18.32,1686641308.984375
-14.85,1686641309.0
-9.85,1686641309.015625
-3.92,1686641309.03125
2.24,1686641309.046875
8.02,1686641309.0625
12.99,1686641309.078125
17.02,1686641309.09375
20.17,1686641309.109375
22.67,1686641309.125
24.78,1686641309.140625
26.71,1686641309.15625
28.55,1686641309.171875
30.33,1686641309.1875
31.97,1686641309.203125
33.38,1686641309.21875
34.49,1686641309.234375
35.26,1686641309.25
35.68,1686641309.265625
35.84,1686641309.28125
35.81,1686641309.296875
35.71,1686641309.3125
35.63,1686641309.328125
35.61,1686641309.34375
35.57,1686641309.359375
35.37,1686641309.375
34.88,1686641309.390625
33.99,1686641309.40625
32.67,1686641309.421875
30.98,1686641309.4375
29.04,1686641309.453125
26.96,1686641309.46875
24.82,1686641309.484375
22.68,1686641309.5
20.57,1686641309.515625
18.47,1686641309.53125
16.38,1686641309.546875
14.26,1686641309.5625
12.06,1686641309.578125
9.73,1686641309.59375
7.24,1686641309.609375
4.62,1686641309.625
1.91,1686641309.640625
-0.83,1686641309.65625
-3.60,1686641309.671875
-6.50,1686641309.6875
-9.72,1686641309.703125
-13.43,1686641309.71875
-17.62,1686641309.734375
-22.02,1686641309.75
-26.11,1686641309.765625
-29.27,1686641309.78125
-31.01,1686641309.796875
-31.01,1686641309.8125
-29.23,1686641309.828125
-25.73,1686641309.84375
-20.70,1686641309.859375
-14.40,1686641309.875
-7.28,1686641309.890625
0.01,1686641309.90625
6.77,1686641309.921875
12.50,1686641309.9375
17.11,1686641309.953125
20.98,1686641309.96875
24.71,1686641309.984375
28.84,1686641310.0
33.49,1686641310.015625
38.37,1686641310.03125
42.86,1686641310.046875
46.35,1686641310.0625
48.44,1686641310.078125
49.10,1686641310.09375
48.57,1686641310.109375
47.33,1686641310.125
46.00,1686641310.140625
45.19,1686641310.15625
45.41,1686641310.171875
46.83,1686641310.1875
49.17,1686641310.203125
51.61,1686641310.21875
52.95,1686641310.234375
52.04,1686641310.25
48.16,1686641310.265625
41.32,1686641310.28125
32.21,1686641310.296875
22.00,1686641310.3125
11.89,1686641310.328125
2.76,1686641310.34375
-4.95,1686641310.359375
-11.11,1686641310.375
-15.65,1686641310.390625
-18.44,1686641310.40625
-19.34,1686641310.421875
-18.45,1686641310.4375
-16.35,1686641310.453125
-14.08,1686641310.46875
-12.86,1686641310.484375
-13.56,1686641310.5
-16.40,1686641310.515625
-20.85,1686641310.53125
-25.92,1686641310.546875
-30.63,1686641310.5625
-34.31,1686641310.578125
-36.68,1686641310.59375
-37.74,1686641310.609375
-37.53,1686641310.625
-35.99,1686641310.640625
-33.15,1686641310.65625
-29.19,1686641310.671875
-24.59,1686641310.6875
-19.97,1686641310.703125
-15.95,1686641310.71875
-12.93,1686641310.734375
-10.97,1686641310.75
-9.89,1686641310.765625
-9.34,1686641310.78125
-8.92,1686641310.796875
-8.33,1686641310.8125
-7.41,1686641310.828125
-6.22,1686641310.84375
-4.97,1686641310.859375
-3.94,1686641310.875
-3.35,1686641310.890625
-3.25,1686641310.90625
-3.50,1686641310.921875
-3.88,1686641310.9375
-4.19,1686641310.953125
-4.29,1686641310.96875
-4.17,1686641310.984375
-3.84,1686641311.0
-3.35,1686641311.015625
-2.72,1686641311.03125
-1.95,1686641311.046875
-1.11,1686641311.0625
-0.27,1686641311.078125
0.46,1686641311.09375
1.01,1686641311.109375
1.36,1686641311.125
1.50,1686641311.140625
1.46,1686641311.15625
1.22,1686641311.171875
0.81,1686641311.1875
0.33,1686641311.203125
-0.07,1686641311.21875
-0.20,1686641311.234375
0.02,1686641311.25
0.53,1686641311.265625
1.07,1686641311.28125
1.29,1686641311.296875
0.92,1686641311.3125
-0.18,1686641311.328125
-1.90,1686641311.34375
-3.99,1686641311.359375
-6.17,1686641311.375
-8.17,1686641311.390625
-9.82,1686641311.40625
-11.05,1686641311.421875
-11.84,1686641311.4375
-12.24,1686641311.453125
-12.32,1686641311.46875
-12.23,1686641311.484375
-12.13,1686641311.5
-12.12,1686641311.515625
-12.21,1686641311.53125
-12.30,1686641311.546875
-12.22,1686641311.5625
-11.82,1686641311.578125
-11.07,1686641311.59375
-10.10,1686641311.609375
-9.15,1686641311.625
-8.39,1686641311.640625
-7.85,1686641311.65625
-7.40,1686641311.671875
-6.81,1686641311.6875
-5.96,1686641311.703125
-4.90,1686641311.71875
-3.90,1686641311.734375
-3.33,1686641311.75
-3.45,1686641311.765625
-4.35,1686641311.78125
-5.89,1686641311.796875
-7.83,1686641311.8125
-9.92,1686641311.828125
-11.97,1686641311.84375
-13.90,1686641311.859375
-15.67,1686641311.875
-17.25,1686641311.890625
-18.58,1686641311.90625
-19.53,1686641311.921875
-20.00,1686641311.9375
-19.88,1686641311.953125
-19.19,1686641311.96875
-17.97,1686641311.984375
-16.28,1686641312.0
-14.15,1686641312.015625
-11.60,1686641312.03125
-8.65,1686641312.046875
-5.45,1686641312.0625
-2.32,1686641312.078125
0.36,1686641312.09375
2.35,1686641312.109375
3.79,1686641312.125
5.31,1686641312.140625
7.91,1686641312.15625
12.69,1686641312.171875
20.36,1686641312.1875
30.98,1686641312.203125
43.83,1686641312.21875
57.66,1686641312.234375
71.02,1686641312.25
82.70,1686641312.265625
91.96,1686641312.28125
98.63,1686641312.296875
102.95,1686641312.3125
105.41,1686641312.328125
106.47,1686641312.34375
106.48,1686641312.359375
105.64,1686641312.375
104.03,1686641312.390625
101.65,1686641312.40625
98.44,1686641312.421875
94.29,1686641312.4375
89.05,1686641312.453125
82.53,1686641312.46875
74.57,1686641312.484375
65.05,1686641312.5
53.93,1686641312.515625
41.18,1686641312.53125
26.84,1686641312.546875
11.11,1686641312.5625
-5.61,1686641312.578125
-22.57,1686641312.59375
-38.76,1686641312.609375
-53.07,1686641312.625
-64.63,1686641312.640625
-73.00,1686641312.65625
-78.29,1686641312.671875
-81.07,1686641312.6875
-82.13,1686641312.703125
-82.28,1686641312.71875
-82.13,1686641312.734375
-82.16,1686641312.75
-82.64,1686641312.765625
-83.74,1686641312.78125
-85.48,1686641312.796875
-87.78,1686641312.8125
-90.47,1686641312.828125
-93.43,1686641312.84375
-96.68,1686641312.859375
-100.42,1686641312.875
-104.88,1686641312.890625
-110.16,1686641312.90625
-115.93,1686641312.921875
-121.40,1686641312.9375
-125.47,1686641312.953125
-127.08,1686641312.96875
-125.56,1686641312.984375
-120.78,1686641313.0
-113.14,1686641313.015625
-103.34,1686641313.03125
-92.07,1686641313.046875
-79.94,1686641313.0625
-67.42,1686641313.078125
-54.94,1686641313.09375
-43.03,1686641313.109375
-32.27,1686641313.125
-23.20,1686641313.140625
-16.11,1686641313.15625
-11.03,1686641313.171875
-7.66,1686641313.1875
-5.52,1686641313.203125
-4.10,1686641313.21875
-2.94,1686641313.234375
-1.68,1686641313.25
-0.16,1686641313.265625
1.67,1686641313.28125
3.65,1686641313.296875
5.52,1686641313.3125
6.94,1686641313.328125
7.61,1686641313.34375
7.41,1686641313.359375
6.41,1686641313.375
4.86,1686641313.390625
3.08,1686641313.40625
1.34,1686641313.421875
-0.26,1686641313.4375
-1.72,1686641313.453125
-3.04,1686641313.46875
-4.18,1686641313.484375
-4.98,1686641313.5
-5.24,1686641313.515625
-4.83,1686641313.53125
-3.74,1686641313.546875
-2.11,1686641313.5625
-0.22,1686641313.578125
1.58,1686641313.59375
2.97,1686641313.609375
3.61,1686641313.625
3.29,1686641313.640625
1.92,1686641313.65625
-0.40,1686641313.671875
-3.39,1686641313.6875
-6.58,1686641313.703125
-9.38,1686641313.71875
-11.22,1686641313.734375
-11.60,1686641313.75
-10.26,1686641313.765625
-7.21,1686641313.78125
-2.73,1686641313.796875
2.63,1686641313.8125
8.25,1686641313.828125
13.56,1686641313.84375
18.26,1686641313.859375
22.30,1686641313.875
25.87,1686641313.890625
29.23,1686641313.90625
32.54,1686641313.921875
35.76,1686641313.9375
38.68,1686641313.953125
41.03,1686641313.96875
42.58,1686641313.984375
43.32,1686641314.0
43.43,1686641314.015625
43.21,1686641314.03125
42.95,1686641314.046875
42.85,1686641314.0625
42.92,1686641314.078125
43.05,1686641314.09375
43.06,1686641314.109375
42.80,1686641314.125
42.15,1686641314.140625
41.07,1686641314.15625
39.52,1686641314.171875
37.45,1686641314.1875
34.75,1686641314.203125
31.38,1686641314.21875
27.40,1686641314.234375
23.01,1686641314.25
18.64,1686641314.265625
14.72,1686641314.28125
11.65,1686641314.296875
9.58,1686641314.3125
8.35,1686641314.328125
7.60,1686641314.34375
6.96,1686641314.359375
6.20,1686641314.375
5.26,1686641314.390625
4.22,1686641314.40625
3.03,1686641314.421875
1.54,1686641314.4375
-0.51,1686641314.453125
-3.20,1686641314.46875
-6.32,1686641314.484375
-9.30,1686641314.5
-11.45,1686641314.515625
-12.27,1686641314.53125
-11.61,1686641314.546875
-9.72,1686641314.5625
-7.01,1686641314.578125
-3.88,1686641314.59375
-0.57,1686641314.609375
2.72,1686641314.625
5.78,1686641314.640625
8.30,1686641314.65625
9.93,1686641314.671875
10.40,1686641314.6875
9.71,1686641314.703125
8.11,1686641314.71875
6.00,1686641314.734375
3.82,1686641314.75
1.87,1686641314.765625
0.29,1686641314.78125
-0.95,1686641314.796875
-1.99,1686641314.8125
-2.99,1686641314.828125
-4.13,1686641314.84375
-5.51,1686641314.859375
-7.19,1686641314.875
-9.07,1686641314.890625
-10.96,1686641314.90625
-12.55,1686641314.921875
-13.52,1686641314.9375
-13.63,1686641314.953125
-12.86,1686641314.96875
-11.36,1686641314.984375
-9.44,1686641315.0
-7.44,1686641315.015625
-5.56,1686641315.03125
-3.87,1686641315.046875
-2.32,1686641315.0625
-0.81,1686641315.078125
0.69,1686641315.09375
2.21,1686641315.109375
3.67,1686641315.125
4.99,1686641315.140625
5.97,1686641315.15625
6.40,1686641315.171875
6.08,1686641315.1875
4.98,1686641315.203125
3.34,1686641315.21875
1.78,1686641315.234375
1.06,1686641315.25
1.88,1686641315.265625
4.54,1686641315.28125
8.90,1686641315.296875
14.44,1686641315.3125
20.48,1686641315.328125
26.42,1686641315.34375
31.88,1686641315.359375
36.70,1686641315.375
40.86,1686641315.390625
44.40,1686641315.40625
47.41,1686641315.421875
50.03,1686641315.4375
52.48,1686641315.453125
54.94,1686641315.46875
57.53,1686641315.484375
60.19,1686641315.5
62.67,1686641315.515625
64.61,1686641315.53125
65.67,1686641315.546875
65.58,1686641315.5625
64.28,1686641315.578125
61.89,1686641315.59375
58.65,1686641315.609375
54.87,1686641315.625
50.88,1686641315.640625
46.87,1686641315.65625
42.89,1686641315.671875
38.78,1686641315.6875
34.23,1686641315.703125
28.86,1686641315.71875
22.34,1686641315.734375
14.52,1686641315.75
5.52,1686641315.765625
-4.33,1686641315.78125
-14.46,1686641315.796875
-24.22,1686641315.8125
-32.97,1686641315.828125
-40.26,1686641315.84375
-45.83,1686641315.859375
-49.75,1686641315.875
-52.28,1686641315.890625
-53.81,1686641315.90625
-54.70,1686641315.921875
-55.24,1686641315.9375
-55.56,1686641315.953125
-55.69,1686641315.96875
-55.57,1686641315.984375
-55.13,1686641316.0
-54.32,1686641316.015625
-53.22,1686641316.03125
-52.02,1686641316.046875
-50.98,1686641316.0625
-50.38,1686641316.078125
-50.34,1686641316.09375
-50.69,1686641316.109375
-50.96,1686641316.125
-50.58,1686641316.140625
-49.02,1686641316.15625
-46.08,1686641316.171875
-41.98,1686641316.1875
-37.29,1686641316.203125
-32.71,1686641316.21875
-28.87,1686641316.234375
-26.13,1686641316.25
-24.57,1686641316.265625
-24.06,1686641316.28125
-24.39,1686641316.296875
-25.35,1686641316.3125
-26.73,1686641316.328125
-28.31,1686641316.34375
-29.79,1686641316.359375
-30.86,1686641316.375
-31.29,1686641316.390625
-31.02,1686641316.40625
-30.22,1686641316.421875
-29.15,1686641316.4375
-28.12,1686641316.453125
-27.31,1686641316.46875
-26.74,1686641316.484375
-26.29,1686641316.5
-25.76,1686641316.515625
-24.98,1686641316.53125
-23.84,1686641316.546875
-22.38,1686641316.5625
-20.68,1686641316.578125
-18.88,1686641316.59375
-17.08,1686641316.609375
-15.36,1686641316.625
-13.74,1686641316.640625
-12.21,1686641316.65625
-10.73,1686641316.671875
-9.25,1686641316.6875
-7.74,1686641316.703125
-6.21,1686641316.71875
-4.69,1686641316.734375
-3.20,1686641316.75
-1.76,1686641316.765625
-0.33,1686641316.78125
1.08,1686641316.796875
2.45,1686641316.8125
3.69,1686641316.828125
4.71,1686641316.84375
5.45,1686641316.859375
5.93,1686641316.875
6.28,1686641316.890625
6.72,1686641316.90625
7.47,1686641316.921875
8.66,1686641316.9375
10.28,1686641316.953125
12.22,1686641316.96875
14.30,1686641316.984375
16.37,1686641317.0
18.40,1686641317.015625
20.45,1686641317.03125
22.71,1686641317.046875
25.40,1686641317.0625
28.69,1686641317.078125
32.66,1686641317.09375
37.27,1686641317.109375
42.36,1686641317.125
47.66,1686641317.140625
52.85,1686641317.15625
57.68,1686641317.171875
61.93,1686641317.1875
65.51,1686641317.203125
68.32,1686641317.21875
70.27,1686641317.234375
71.18,1686641317.25
70.81,1686641317.265625
68.92,1686641317.28125
65.45,1686641317.296875
60.58,1686641317.3125
54.81,1686641317.328125
48.85,1686641317.34375
43.44,1686641317.359375
39.18,1686641317.375
36.32,1686641317.390625
34.76,1686641317.40625
34.10,1686641317.421875
33.87,1686641317.4375
33.69,1686641317.453125
33.41,1686641317.46875
33.09,1686641317.484375
32.84,1686641317.5
32.69,1686641317.515625
32.49,1686641317.53125
31.96,1686641317.546875
30.84,1686641317.5625
29.02,1686641317.578125
26.62,1686641317.59375
23.94,1686641317.609375
21.28,1686641317.625
18.91,1686641317.640625
16.95,1686641317.65625
15.40,1686641317.671875
14.17,1686641317.6875
13.12,1686641317.703125
12.08,1686641317.71875
10.87,1686641317.734375
9.36,1686641317.75
7.54,1686641317.765625
5.46,1686641317.78125
3.28,1686641317.796875
1.15,1686641317.8125
-0.80,1686641317.828125
-2.51,1686641317.84375
-4.01,1686641317.859375
-5.35,1686641317.875
-6.65,1686641317.890625
-8.01,1686641317.90625
-9.58,1686641317.921875
-11.49,1686641317.9375
-13.81,1686641317.953125
-16.61,1686641317.96875
-19.89,1686641317.984375
-23.62,1686641318.0
-27.69,1686641318.015625
-31.91,1686641318.03125
-35.98,1686641318.046875
-39.52,1686641318.0625
-42.18,1686641318.078125
-43.71,1686641318.09375
-44.05,1686641318.109375
-43.40,1686641318.125
-42.11,1686641318.140625
-40.58,1686641318.15625
-39.08,1686641318.171875
-37.67,1686641318.1875
-36.18,1686641318.203125
-34.36,1686641318.21875
-32.03,1686641318.234375
-29.23,1686641318.25
-26.20,1686641318.265625
-23.31,1686641318.28125
-20.87,1686641318.296875
-19.03,1686641318.3125
-17.72,1686641318.328125
-16.74,1686641318.34375
-15.89,1686641318.359375
-15.03,1686641318.375
-14.16,1686641318.390625
-13.38,1686641318.40625
-12.88,1686641318.421875
-12.83,1686641318.4375
-13.44,1686641318.453125
-14.75,1686641318.46875
-16.56,1686641318.484375
-18.49,1686641318.5
-20.14,1686641318.515625
-21.31,1686641318.53125
-22.07,1686641318.546875
-22.65,1686641318.5625
-23.33,1686641318.578125
-24.37,1686641318.59375
-25.76,1686641318.609375
-27.32,1686641318.625
-28.76,1686641318.640625
-29.94,1686641318.65625
-30.95,1686641318.671875
-32.01,1686641318.6875
-33.27,1686641318.703125
-34.79,1686641318.71875
-36.70,1686641318.734375
-38.96,1686641318.75
-41.31,1686641318.765625
-43.34,1686641318.78125
-44.69,1686641318.796875
-45.09,1686641318.8125
-44.45,1686641318.828125
-42.77,1686641318.84375
-40.24,1686641318.859375
-37.88,1686641318.875
-36.51,1686641318.890625
-36.35,1686641318.90625
-36.96,1686641318.921875
-37.68,1686641318.9375
-38.08,1686641318.953125
-38.04,1686641318.96875
-37.66,1686641318.984375
-37.14,1686641319.0
-38.17,1686641319.015625
-41.82,1686641319.03125
-47.87,1686641319.046875
-54.85,1686641319.0625
-61.04,1686641319.078125
-65.37,1686641319.09375
-67.46,1686641319.109375
-67.40,1686641319.125
-65.57,1686641319.140625
-64.82,1686641319.15625
-67.25,1686641319.171875
-73.09,1686641319.1875
-80.75,1686641319.203125
-88.38,1686641319.21875
-95.02,1686641319.234375
-100.60,1686641319.25
-105.39,1686641319.265625
-109.56,1686641319.28125
-116.06,1686641319.296875
-126.55,1686641319.3125
-140.22,1686641319.328125
-154.20,1686641319.34375
-165.56,1686641319.359375
-172.95,1686641319.375
-176.54,1686641319.390625
-177.49,1686641319.40625
-158.09,1686641319.421875
-110.95,1686641319.4375
-42.72,1686641319.453125
29.02,1686641319.46875
88.58,1686641319.484375
130.18,1686641319.5
156.17,1686641319.515625
172.06,1686641319.53125
182.69,1686641319.546875
190.89,1686641319.5625
194.50,1686641319.578125
191.34,1686641319.59375
181.69,1686641319.609375
168.57,1686641319.625
155.83,1686641319.640625
146.09,1686641319.65625
140.25,1686641319.671875
137.71,1686641319.6875
137.10,1686641319.703125
134.56,1686641319.71875
127.47,1686641319.734375
115.74,1686641319.75
101.84,1686641319.765625
88.99,1686641319.78125
79.46,1686641319.796875
74.04,1686641319.8125
72.10,1686641319.828125
72.05,1686641319.84375
70.52,1686641319.859375
64.91,1686641319.875
54.56,1686641319.890625
40.79,1686641319.90625
25.96,1686641319.921875
12.12,1686641319.9375
1.38,1686641319.953125
-5.00,1686641319.96875
-6.65,1686641319.984375
-4.99,1686641320.0
-2.13,1686641320.015625
-0.12,1686641320.03125
-0.14,1686641320.046875
-2.37,1686641320.0625
-5.75,1686641320.078125
-8.37,1686641320.09375
-8.26,1686641320.109375
-3.91,1686641320.125
4.78,1686641320.140625
16.50,1686641320.15625
28.40,1686641320.171875
36.63,1686641320.1875
36.83,1686641320.203125
27.01,1686641320.21875
9.07,1686641320.234375
-11.39,1686641320.25
-26.97,1686641320.265625
-31.81,1686641320.28125
-24.46,1686641320.296875
-8.58,1686641320.3125
9.16,1686641320.328125
22.45,1686641320.34375
28.48,1686641320.359375
28.63,1686641320.375
26.80,1686641320.390625
26.66,1686641320.40625
29.80,1686641320.421875
35.41,1686641320.4375
41.52,1686641320.453125
46.29,1686641320.46875
