1687331047.00,timestamp
-0.00,1687331047.0
-0.00,1687331047.015625
-0.00,1687331047.03125
-0.00,1687331047.046875
-0.00,1687331047.0625
-0.00,1687331047.078125
-0.00,1687331047.09375
-0.00,1687331047.109375
-0.00,1687331047.125
-0.00,1687331047.140625
0.00,1687331047.15625
0.01,1687331047.171875
0.01,1687331047.1875
-0.00,1687331047.203125
-0.03,1687331047.21875
-0.05,1687331047.234375
-0.05,1687331047.25
0.00,1687331047.265625
0.13,1687331047.28125
0.36,1687331047.296875
0.66,1687331047.3125
1.01,1687331047.328125
1.37,1687331047.34375
1.72,1687331047.359375
2.06,1687331047.375
2.40,1687331047.390625
2.79,1687331047.40625
3.24,1687331047.421875
3.80,1687331047.4375
4.42,1687331047.453125
5.06,1687331047.46875
5.66,1687331047.484375
6.20,1687331047.5
6.68,1687331047.515625
7.15,1687331047.53125
7.68,1687331047.546875
8.31,1687331047.5625
9.14,1687331047.578125
10.09,1687331047.59375
11.04,1687331047.609375
11.88,1687331047.625
12.56,1687331047.640625
13.14,1687331047.65625
13.76,1687331047.671875
14.65,1687331047.6875
15.96,1687331047.703125
17.91,1687331047.71875
20.32,1687331047.734375
22.90,1687331047.75
25.38,1687331047.765625
27.58,1687331047.78125
29.57,1687331047.796875
31.68,1687331047.8125
34.32,1687331047.828125
37.81,1687331047.84375
42.54,1687331047.859375
48.15,1687331047.875
54.10,1687331047.890625
59.83,1687331047.90625
64.97,1687331047.921875
69.58,1687331047.9375
74.14,1687331047.953125
79.34,1687331047.96875
85.71,1687331047.984375
93.76,1687331048.0
103.00,1687331048.015625
112.62,1687331048.03125
121.73,1687331048.046875
129.77,1687331048.0625
136.75,1687331048.078125
143.30,1687331048.09375
150.75,1687331048.109375
157.77,1687331048.125
166.64,1687331048.140625
177.95,1687331048.15625
191.79,1687331048.171875
206.97,1687331048.1875
220.57,1687331048.203125
228.25,1687331048.21875
225.36,1687331048.234375
208.53,1687331048.25
176.87,1687331048.265625
132.76,1687331048.28125
80.05,1687331048.296875
23.07,1687331048.3125
-34.94,1687331048.328125
-92.44,1687331048.34375
-149.16,1687331048.359375
-205.23,1687331048.375
-260.37,1687331048.390625
-313.74,1687331048.40625
-363.87,1687331048.421875
-409.83,1687331048.4375
-450.91,1687331048.453125
-486.50,1687331048.46875
-515.74,1687331048.484375
-537.23,1687331048.5
-549.22,1687331048.515625
-549.96,1687331048.53125
-538.37,1687331048.546875
-514.21,1687331048.5625
-478.67,1687331048.578125
-433.88,1687331048.59375
-382.45,1687331048.609375
-327.02,1687331048.625
-269.84,1687331048.640625
-212.63,1687331048.65625
-156.66,1687331048.671875
-102.95,1687331048.6875
-52.37,1687331048.703125
-5.90,1687331048.71875
35.58,1687331048.734375
71.43,1687331048.75
101.35,1687331048.765625
125.50,1687331048.78125
144.38,1687331048.796875
158.69,1687331048.8125
169.15,1687331048.828125
176.37,1687331048.84375
180.75,1687331048.859375
182.57,1687331048.875
182.07,1687331048.890625
179.51,1687331048.90625
175.23,1687331048.921875
169.65,1687331048.9375
163.18,1687331048.953125
156.15,1687331048.96875
148.81,1687331048.984375
141.30,1687331049.0
133.69,1687331049.015625
126.02,1687331049.03125
118.33,1687331049.046875
110.69,1687331049.0625
103.16,1687331049.078125
95.80,1687331049.09375
88.68,1687331049.109375
81.83,1687331049.125
75.25,1687331049.140625
68.95,1687331049.15625
62.95,1687331049.171875
57.25,1687331049.1875
51.86,1687331049.203125
46.78,1687331049.21875
42.03,1687331049.234375
37.59,1687331049.25
33.45,1687331049.265625
29.61,1687331049.28125
26.07,1687331049.296875
22.81,1687331049.3125
19.83,1687331049.328125
17.11,1687331049.34375
14.67,1687331049.359375
12.48,1687331049.375
10.54,1687331049.390625
8.83,1687331049.40625
7.35,1687331049.421875
6.07,1687331049.4375
4.97,1687331049.453125
4.05,1687331049.46875
3.27,1687331049.484375
2.62,1687331049.5
2.09,1687331049.515625
1.65,1687331049.53125
1.30,1687331049.546875
1.01,1687331049.5625
0.79,1687331049.578125
0.61,1687331049.59375
0.48,1687331049.609375
0.37,1687331049.625
0.29,1687331049.640625
0.24,1687331049.65625
0.20,1687331049.671875
0.17,1687331049.6875
0.16,1687331049.703125
0.17,1687331049.71875
0.18,1687331049.734375
0.20,1687331049.75
0.22,1687331049.765625
0.26,1687331049.78125
0.29,1687331049.796875
0.33,1687331049.8125
0.37,1687331049.828125
0.41,1687331049.84375
0.46,1687331049.859375
0.52,1687331049.875
0.59,1687331049.890625
0.66,1687331049.90625
0.70,1687331049.921875
0.72,1687331049.9375
0.69,1687331049.953125
0.63,1687331049.96875
0.56,1687331049.984375
0.53,1687331050.0
0.55,1687331050.015625
0.63,1687331050.03125
0.75,1687331050.046875
0.89,1687331050.0625
1.00,1687331050.078125
1.08,1687331050.09375
1.14,1687331050.109375
1.20,1687331050.125
1.32,1687331050.140625
1.52,1687331050.15625
1.80,1687331050.171875
2.13,1687331050.1875
2.46,1687331050.203125
2.72,1687331050.21875
2.89,1687331050.234375
2.99,1687331050.25
3.10,1687331050.265625
3.33,1687331050.28125
3.75,1687331050.296875
4.36,1687331050.3125
5.07,1687331050.328125
5.72,1687331050.34375
6.16,1687331050.359375
6.32,1687331050.375
6.26,1687331050.390625
6.19,1687331050.40625
6.35,1687331050.421875
6.93,1687331050.4375
7.92,1687331050.453125
9.15,1687331050.46875
10.27,1687331050.484375
10.95,1687331050.5
11.02,1687331050.515625
10.61,1687331050.53125
10.07,1687331050.546875
9.84,1687331050.5625
10.20,1687331050.578125
11.11,1687331050.59375
12.11,1687331050.609375
12.48,1687331050.625
11.53,1687331050.640625
8.89,1687331050.65625
4.68,1687331050.671875
-0.54,1687331050.6875
-6.03,1687331050.703125
-11.24,1687331050.71875
-15.90,1687331050.734375
-20.18,1687331050.75
-24.51,1687331050.765625
-29.32,1687331050.78125
-34.95,1687331050.796875
-41.63,1687331050.8125
-49.33,1687331050.828125
-57.53,1687331050.84375
-64.84,1687331050.859375
-69.07,1687331050.875
-67.75,1687331050.890625
-59.22,1687331050.90625
-43.62,1687331050.921875
-23.28,1687331050.9375
-2.05,1687331050.953125
16.15,1687331050.96875
28.67,1687331050.984375
34.95,1687331051.0
36.22,1687331051.015625
34.47,1687331051.03125
31.36,1687331051.046875
27.73,1687331051.0625
23.72,1687331051.078125
19.38,1687331051.09375
15.00,1687331051.109375
11.21,1687331051.125
8.62,1687331051.140625
7.40,1687331051.15625
7.20,1687331051.171875
7.40,1687331051.1875
7.37,1687331051.203125
6.80,1687331051.21875
5.84,1687331051.234375
4.91,1687331051.25
4.46,1687331051.265625
4.70,1687331051.28125
5.48,1687331051.296875
6.25,1687331051.3125
6.45,1687331051.328125
5.60,1687331051.34375
3.71,1687331051.359375
1.12,1687331051.375
-1.51,1687331051.390625
-3.59,1687331051.40625
-4.77,1687331051.421875
-5.04,1687331051.4375
-4.86,1687331051.453125
-4.78,1687331051.46875
-5.21,1687331051.484375
-6.30,1687331051.5
-7.86,1687331051.515625
-9.51,1687331051.53125
-10.89,1687331051.546875
-11.79,1687331051.5625
-12.25,1687331051.578125
-12.61,1687331051.59375
-13.34,1687331051.609375
-14.87,1687331051.625
-17.41,1687331051.640625
-20.77,1687331051.65625
-24.34,1687331051.671875
-27.17,1687331051.6875
-28.32,1687331051.703125
-26.55,1687331051.71875
-21.41,1687331051.734375
-13.22,1687331051.75
-2.97,1687331051.765625
7.97,1687331051.78125
18.34,1687331051.796875
27.25,1687331051.8125
34.32,1687331051.828125
39.61,1687331051.84375
43.37,1687331051.859375
45.77,1687331051.875
46.88,1687331051.890625
46.70,1687331051.90625
45.26,1687331051.921875
42.74,1687331051.9375
39.48,1687331051.953125
35.94,1687331051.96875
32.52,1687331051.984375
29.49,1687331052.0
26.85,1687331052.015625
24.48,1687331052.03125
22.24,1687331052.046875
20.10,1687331052.0625
18.12,1687331052.078125
16.36,1687331052.09375
14.79,1687331052.109375
13.29,1687331052.125
11.69,1687331052.140625
9.80,1687331052.15625
7.55,1687331052.171875
4.96,1687331052.1875
2.15,1687331052.203125
-0.79,1687331052.21875
-3.75,1687331052.234375
-6.68,1687331052.25
-9.52,1687331052.265625
-12.26,1687331052.28125
-14.87,1687331052.296875
-17.35,1687331052.3125
-19.71,1687331052.328125
-22.01,1687331052.34375
-24.40,1687331052.359375
-27.02,1687331052.375
-30.08,1687331052.390625
-33.77,1687331052.40625
-38.16,1687331052.421875
-43.19,1687331052.4375
-48.47,1687331052.453125
-53.26,1687331052.46875
-56.55,1687331052.484375
-57.24,1687331052.5
-54.53,1687331052.515625
-48.13,1687331052.53125
-38.44,1687331052.546875
-26.39,1687331052.5625
-13.19,1687331052.578125
-0.03,1687331052.59375
12.10,1687331052.609375
22.47,1687331052.625
30.62,1687331052.640625
36.34,1687331052.65625
39.64,1687331052.671875
40.76,1687331052.6875
40.10,1687331052.703125
38.13,1687331052.71875
35.32,1687331052.734375
32.10,1687331052.75
28.85,1687331052.765625
25.95,1687331052.78125
23.69,1687331052.796875
22.24,1687331052.8125
21.57,1687331052.828125
21.43,1687331052.84375
21.47,1687331052.859375
21.37,1687331052.875
20.96,1687331052.890625
20.18,1687331052.90625
19.09,1687331052.921875
17.72,1687331052.9375
16.08,1687331052.953125
14.14,1687331052.96875
11.92,1687331052.984375
9.44,1687331053.0
6.77,1687331053.015625
3.95,1687331053.03125
0.92,1687331053.046875
-2.35,1687331053.0625
-5.86,1687331053.078125
-9.53,1687331053.09375
-13.22,1687331053.109375
-16.80,1687331053.125
-20.26,1687331053.140625
-23.75,1687331053.15625
-27.49,1687331053.171875
-31.67,1687331053.1875
-36.33,1687331053.203125
-41.29,1687331053.21875
-46.11,1687331053.234375
-50.11,1687331053.25
-52.40,1687331053.265625
-52.05,1687331053.28125
-48.31,1687331053.296875
-40.96,1687331053.3125
-30.46,1687331053.328125
-17.98,1687331053.34375
-5.07,1687331053.359375
6.84,1687331053.375
16.76,1687331053.390625
24.38,1687331053.40625
29.85,1687331053.421875
33.48,1687331053.4375
35.53,1687331053.453125
36.12,1687331053.46875
35.37,1687331053.484375
33.52,1687331053.5
31.04,1687331053.515625
28.47,1687331053.53125
26.30,1687331053.546875
24.84,1687331053.5625
24.12,1687331053.578125
23.98,1687331053.59375
24.18,1687331053.609375
24.44,1687331053.625
24.50,1687331053.640625
24.11,1687331053.65625
23.08,1687331053.671875
21.34,1687331053.6875
18.93,1687331053.703125
16.08,1687331053.71875
13.07,1687331053.734375
10.10,1687331053.75
7.27,1687331053.765625
4.55,1687331053.78125
1.83,1687331053.796875
-0.97,1687331053.8125
-3.85,1687331053.828125
-6.78,1687331053.84375
-9.81,1687331053.859375
-13.09,1687331053.875
-16.85,1687331053.890625
-21.33,1687331053.90625
-26.65,1687331053.921875
-32.67,1687331053.9375
-39.03,1687331053.953125
-45.11,1687331053.96875
-50.08,1687331053.984375
-53.04,1687331054.0
-53.15,1687331054.015625
-49.90,1687331054.03125
-43.23,1687331054.046875
-33.68,1687331054.0625
-22.21,1687331054.078125
-10.04,1687331054.09375
1.70,1687331054.109375
12.20,1687331054.125
20.97,1687331054.140625
27.88,1687331054.15625
32.91,1687331054.171875
36.10,1687331054.1875
37.50,1687331054.203125
37.21,1687331054.21875
35.47,1687331054.234375
32.68,1687331054.25
29.35,1687331054.265625
26.05,1687331054.28125
23.18,1687331054.296875
20.96,1687331054.3125
19.33,1687331054.328125
18.08,1687331054.34375
16.95,1687331054.359375
15.74,1687331054.375
14.39,1687331054.390625
12.92,1687331054.40625
11.39,1687331054.421875
9.78,1687331054.4375
8.03,1687331054.453125
5.97,1687331054.46875
3.44,1687331054.484375
0.34,1687331054.5
-3.30,1687331054.515625
-7.34,1687331054.53125
-11.53,1687331054.546875
-15.68,1687331054.5625
-19.68,1687331054.578125
-23.55,1687331054.59375
-27.41,1687331054.609375
-31.47,1687331054.625
-35.95,1687331054.640625
-41.02,1687331054.65625
-46.65,1687331054.671875
-52.51,1687331054.6875
-57.87,1687331054.703125
-61.70,1687331054.71875
-62.83,1687331054.734375
-60.37,1687331054.75
-53.95,1687331054.765625
-43.93,1687331054.78125
-31.35,1687331054.796875
-17.61,1687331054.8125
-4.13,1687331054.828125
7.96,1687331054.84375
18.00,1687331054.859375
25.74,1687331054.875
31.22,1687331054.890625
34.54,1687331054.90625
35.91,1687331054.921875
35.52,1687331054.9375
33.71,1687331054.953125
30.93,1687331054.96875
27.76,1687331054.984375
24.69,1687331055.0
22.04,1687331055.015625
19.92,1687331055.03125
18.26,1687331055.046875
16.91,1687331055.0625
15.80,1687331055.078125
14.93,1687331055.09375
14.30,1687331055.109375
13.91,1687331055.125
13.60,1687331055.140625
13.14,1687331055.15625
12.22,1687331055.171875
10.55,1687331055.1875
7.98,1687331055.203125
4.52,1687331055.21875
0.39,1687331055.234375
-4.05,1687331055.25
-8.41,1687331055.265625
-12.40,1687331055.28125
-15.94,1687331055.296875
-19.18,1687331055.3125
-22.44,1687331055.328125
-26.13,1687331055.34375
-30.63,1687331055.359375
-36.10,1687331055.375
-42.41,1687331055.390625
-49.07,1687331055.40625
-55.08,1687331055.421875
-59.21,1687331055.4375
-60.22,1687331055.453125
-57.32,1687331055.46875
-50.40,1687331055.484375
-40.16,1687331055.5
-27.88,1687331055.515625
-14.98,1687331055.53125
-2.67,1687331055.546875
8.24,1687331055.5625
17.37,1687331055.578125
24.53,1687331055.59375
29.64,1687331055.609375
32.65,1687331055.625
33.62,1687331055.640625
32.87,1687331055.65625
30.94,1687331055.671875
28.49,1687331055.6875
26.12,1687331055.703125
24.19,1687331055.71875
22.74,1687331055.734375
21.65,1687331055.75
20.69,1687331055.765625
19.73,1687331055.78125
18.73,1687331055.796875
17.74,1687331055.8125
16.84,1687331055.828125
16.04,1687331055.84375
15.23,1687331055.859375
14.23,1687331055.875
12.80,1687331055.890625
10.76,1687331055.90625
7.99,1687331055.921875
4.56,1687331055.9375
0.73,1687331055.953125
-3.21,1687331055.96875
-6.96,1687331055.984375
-10.39,1687331056.0
-13.57,1687331056.015625
-16.73,1687331056.03125
-20.21,1687331056.046875
-24.32,1687331056.0625
-29.21,1687331056.078125
-34.81,1687331056.09375
-40.72,1687331056.109375
-46.18,1687331056.125
-50.21,1687331056.140625
-51.75,1687331056.15625
-49.98,1687331056.171875
-44.57,1687331056.1875
-35.80,1687331056.203125
-24.57,1687331056.21875
-12.19,1687331056.234375
-0.01,1687331056.25
10.83,1687331056.265625
19.61,1687331056.28125
26.03,1687331056.296875
30.09,1687331056.3125
31.98,1687331056.328125
31.94,1687331056.34375
30.27,1687331056.359375
27.33,1687331056.375
23.53,1687331056.390625
19.36,1687331056.40625
15.21,1687331056.421875
11.39,1687331056.4375
8.01,1687331056.453125
5.07,1687331056.46875
2.44,1687331056.484375
0.00,1687331056.5
-2.39,1687331056.515625
-4.89,1687331056.53125
-7.61,1687331056.546875
-10.67,1687331056.5625
-14.15,1687331056.578125
-18.10,1687331056.59375
-22.59,1687331056.609375
-27.66,1687331056.625
-33.36,1687331056.640625
-39.68,1687331056.65625
-46.48,1687331056.671875
-53.54,1687331056.6875
-60.57,1687331056.703125
-67.40,1687331056.71875
-74.03,1687331056.734375
-80.72,1687331056.75
-87.85,1687331056.765625
-95.72,1687331056.78125
-104.21,1687331056.796875
-112.60,1687331056.8125
-119.45,1687331056.828125
-122.95,1687331056.84375
-121.26,1687331056.859375
-113.16,1687331056.875
-98.40,1687331056.890625
-77.81,1687331056.90625
-53.06,1687331056.921875
-26.17,1687331056.9375
0.92,1687331056.953125
26.71,1687331056.96875
50.09,1687331056.984375
70.32,1687331057.0
86.86,1687331057.015625
99.31,1687331057.03125
107.54,1687331057.046875
111.76,1687331057.0625
112.55,1687331057.078125
110.77,1687331057.09375
107.36,1687331057.109375
103.07,1687331057.125
98.40,1687331057.140625
93.53,1687331057.15625
88.49,1687331057.171875
83.29,1687331057.1875
78.04,1687331057.203125
72.96,1687331057.21875
68.26,1687331057.234375
64.05,1687331057.25
60.24,1687331057.265625
56.54,1687331057.28125
52.55,1687331057.296875
47.92,1687331057.3125
42.48,1687331057.328125
36.31,1687331057.34375
29.65,1687331057.359375
22.89,1687331057.375
16.34,1687331057.390625
10.16,1687331057.40625
4.38,1687331057.421875
-1.17,1687331057.4375
-6.74,1687331057.453125
-12.64,1687331057.46875
-19.11,1687331057.484375
-26.27,1687331057.5
-33.95,1687331057.515625
-41.54,1687331057.53125
-48.01,1687331057.546875
-52.10,1687331057.5625
-52.63,1687331057.578125
-48.96,1687331057.59375
-41.19,1687331057.609375
-30.21,1687331057.625
-17.42,1687331057.640625
-4.33,1687331057.65625
7.85,1687331057.671875
18.41,1687331057.6875
27.04,1687331057.703125
33.66,1687331057.71875
38.28,1687331057.734375
40.87,1687331057.75
41.49,1687331057.765625
40.36,1687331057.78125
37.97,1687331057.796875
34.96,1687331057.8125
32.00,1687331057.828125
29.58,1687331057.84375
27.82,1687331057.859375
26.62,1687331057.875
25.67,1687331057.890625
24.70,1687331057.90625
23.59,1687331057.921875
22.36,1687331057.9375
21.14,1687331057.953125
20.00,1687331057.96875
18.86,1687331057.984375
17.51,1687331058.0
15.63,1687331058.015625
13.00,1687331058.03125
9.58,1687331058.046875
5.55,1687331058.0625
1.36,1687331058.078125
-2.55,1687331058.09375
-5.79,1687331058.109375
-8.18,1687331058.125
-9.82,1687331058.140625
-11.04,1687331058.15625
-12.29,1687331058.171875
-14.06,1687331058.1875
-16.73,1687331058.203125
-20.45,1687331058.21875
-25.04,1687331058.234375
-29.92,1687331058.25
-34.07,1687331058.265625
-36.27,1687331058.28125
-35.33,1687331058.296875
-30.46,1687331058.3125
-21.58,1687331058.328125
-9.37,1687331058.34375
4.87,1687331058.359375
19.64,1687331058.375
33.52,1687331058.390625
45.58,1687331058.40625
55.37,1687331058.421875
62.74,1687331058.4375
67.79,1687331058.453125
70.64,1687331058.46875
71.49,1687331058.484375
70.60,1687331058.5
68.32,1687331058.515625
65.06,1687331058.53125
61.22,1687331058.546875
57.10,1687331058.5625
52.89,1687331058.578125
48.65,1687331058.59375
44.34,1687331058.609375
39.87,1687331058.625
35.13,1687331058.640625
30.12,1687331058.65625
24.96,1687331058.671875
19.86,1687331058.6875
15.00,1687331058.703125
10.42,1687331058.71875
5.90,1687331058.734375
1.11,1687331058.75
-4.28,1687331058.765625
-10.34,1687331058.78125
-16.88,1687331058.796875
-23.52,1687331058.8125
-29.85,1687331058.828125
-35.56,1687331058.84375
-40.54,1687331058.859375
-44.87,1687331058.875
-48.77,1687331058.890625
-52.57,1687331058.90625
-56.63,1687331058.921875
-61.26,1687331058.9375
-66.55,1687331058.953125
-72.21,1687331058.96875
-77.52,1687331058.984375
-81.43,1687331059.0
-82.87,1687331059.015625
-81.05,1687331059.03125
-75.71,1687331059.046875
-67.21,1687331059.0625
-56.41,1687331059.078125
-44.36,1687331059.09375
-32.08,1687331059.109375
-20.38,1687331059.125
-9.80,1687331059.140625
-0.70,1687331059.15625
6.70,1687331059.171875
12.22,1687331059.1875
15.83,1687331059.203125
17.58,1687331059.21875
17.69,1687331059.234375
16.53,1687331059.25
14.52,1687331059.265625
12.09,1687331059.28125
9.53,1687331059.296875
6.98,1687331059.3125
4.42,1687331059.328125
1.78,1687331059.34375
-0.91,1687331059.359375
-3.42,1687331059.375
-5.31,1687331059.390625
-6.11,1687331059.40625
-5.55,1687331059.421875
-3.75,1687331059.4375
-1.20,1687331059.453125
1.38,1687331059.46875
3.29,1687331059.484375
4.07,1687331059.5
3.53,1687331059.515625
1.77,1687331059.53125
-0.98,1687331059.546875
-4.40,1687331059.5625
-8.12,1687331059.578125
-11.79,1687331059.59375
-15.14,1687331059.609375
-18.08,1687331059.625
-20.78,1687331059.640625
-23.58,1687331059.65625
-26.79,1687331059.671875
-30.42,1687331059.6875
-33.98,1687331059.703125
-36.48,1687331059.71875
-36.66,1687331059.734375
-33.51,1687331059.75
-26.57,1687331059.765625
-16.21,1687331059.78125
-3.51,1687331059.796875
10.10,1687331059.8125
23.21,1687331059.828125
34.73,1687331059.84375
44.01,1687331059.859375
50.72,1687331059.875
54.79,1687331059.890625
56.26,1687331059.90625
55.38,1687331059.921875
52.57,1687331059.9375
48.47,1687331059.953125
43.79,1687331059.96875
39.17,1687331059.984375
35.09,1687331060.0
31.81,1687331060.015625
29.37,1687331060.03125
27.64,1687331060.046875
26.47,1687331060.0625
25.65,1687331060.078125
25.05,1687331060.09375
24.57,1687331060.109375
24.12,1687331060.125
23.64,1687331060.140625
22.99,1687331060.15625
22.02,1687331060.171875
20.53,1687331060.1875
18.32,1687331060.203125
15.33,1687331060.21875
11.62,1687331060.234375
7.42,1687331060.25
3.01,1687331060.265625
-1.31,1687331060.28125
-5.36,1687331060.296875
-9.11,1687331060.3125
-12.64,1687331060.328125
-16.15,1687331060.34375
-19.92,1687331060.359375
-24.30,1687331060.375
-29.61,1687331060.390625
-36.01,1687331060.40625
-43.27,1687331060.421875
-50.68,1687331060.4375
-57.06,1687331060.453125
-61.05,1687331060.46875
-61.55,1687331060.484375
-58.06,1687331060.5
-50.81,1687331060.515625
-40.69,1687331060.53125
-28.91,1687331060.546875
-16.68,1687331060.5625
-4.98,1687331060.578125
5.46,1687331060.59375
14.16,1687331060.609375
20.81,1687331060.625
25.24,1687331060.640625
27.42,1687331060.65625
27.56,1687331060.671875
26.07,1687331060.6875
23.56,1687331060.703125
20.72,1687331060.71875
18.19,1687331060.734375
16.41,1687331060.75
15.51,1687331060.765625
15.32,1687331060.78125
15.46,1687331060.796875
15.60,1687331060.8125
15.47,1687331060.828125
15.03,1687331060.84375
14.34,1687331060.859375
13.53,1687331060.875
12.63,1687331060.890625
11.52,1687331060.90625
10.05,1687331060.921875
8.03,1687331060.9375
5.39,1687331060.953125
2.17,1687331060.96875
-1.43,1687331060.984375
-5.16,1687331061.0
-8.80,1687331061.015625
-12.22,1687331061.03125
-15.37,1687331061.046875
-18.33,1687331061.0625
-21.24,1687331061.078125
-24.31,1687331061.09375
-27.79,1687331061.109375
-31.89,1687331061.125
-36.75,1687331061.140625
-42.22,1687331061.15625
-47.90,1687331061.171875
-53.00,1687331061.1875
-56.55,1687331061.203125
-57.56,1687331061.21875
-55.34,1687331061.234375
-49.66,1687331061.25
-40.89,1687331061.265625
-29.89,1687331061.28125
-17.85,1687331061.296875
-5.91,1687331061.3125
4.97,1687331061.328125
14.18,1687331061.34375
21.42,1687331061.359375
26.53,1687331061.375
29.46,1687331061.390625
30.22,1687331061.40625
28.98,1687331061.421875
26.21,1687331061.4375
22.68,1687331061.453125
19.27,1687331061.46875
16.76,1687331061.484375
15.51,1687331061.5
15.39,1687331061.515625
15.90,1687331061.53125
16.43,1687331061.546875
16.50,1687331061.5625
15.96,1687331061.578125
15.02,1687331061.59375
13.99,1687331061.609375
13.16,1687331061.625
12.57,1687331061.640625
12.04,1687331061.65625
11.19,1687331061.671875
9.68,1687331061.6875
7.30,1687331061.703125
4.10,1687331061.71875
0.28,1687331061.734375
-3.82,1687331061.75
-7.91,1687331061.765625
-11.81,1687331061.78125
-15.46,1687331061.796875
-18.89,1687331061.8125
-22.23,1687331061.828125
-25.66,1687331061.84375
-29.42,1687331061.859375
-33.74,1687331061.875
-38.68,1687331061.890625
-43.98,1687331061.90625
-48.97,1687331061.921875
-52.60,1687331061.9375
-53.74,1687331061.953125
-51.51,1687331061.96875
-45.61,1687331061.984375
-36.45,1687331062.0
-25.05,1687331062.015625
-12.69,1687331062.03125
-0.66,1687331062.046875
10.10,1687331062.0625
18.97,1687331062.078125
25.69,1687331062.09375
30.15,1687331062.109375
32.36,1687331062.125
32.44,1687331062.140625
30.62,1687331062.15625
27.35,1687331062.171875
23.28,1687331062.1875
19.18,1687331062.203125
15.71,1687331062.21875
13.30,1687331062.234375
12.00,1687331062.25
11.50,1687331062.265625
11.37,1687331062.28125
11.24,1687331062.296875
10.91,1687331062.3125
10.40,1687331062.328125
9.85,1687331062.34375
9.31,1687331062.359375
8.72,1687331062.375
7.88,1687331062.390625
6.56,1687331062.40625
4.55,1687331062.421875
1.80,1687331062.4375
-1.59,1687331062.453125
-5.41,1687331062.46875
-9.38,1687331062.484375
-13.26,1687331062.5
-16.89,1687331062.515625
-20.28,1687331062.53125
-23.55,1687331062.546875
-26.88,1687331062.5625
-30.52,1687331062.578125
-34.73,1687331062.59375
-39.63,1687331062.609375
-45.09,1687331062.625
-50.66,1687331062.640625
-55.48,1687331062.65625
-58.42,1687331062.671875
-58.42,1687331062.6875
-54.79,1687331062.703125
-47.49,1687331062.71875
-37.16,1687331062.734375
-24.90,1687331062.75
-11.94,1687331062.765625
0.60,1687331062.78125
11.83,1687331062.796875
21.10,1687331062.8125
27.91,1687331062.828125
32.00,1687331062.84375
33.37,1687331062.859375
32.34,1687331062.875
29.55,1687331062.890625
25.87,1687331062.90625
22.12,1687331062.921875
18.92,1687331062.9375
16.54,1687331062.953125
14.91,1687331062.96875
13.75,1687331062.984375
12.81,1687331063.0
11.92,1687331063.015625
11.14,1687331063.03125
10.59,1687331063.046875
10.40,1687331063.0625
10.51,1687331063.078125
10.65,1687331063.09375
10.41,1687331063.109375
9.44,1687331063.125
7.56,1687331063.140625
4.84,1687331063.15625
1.57,1687331063.171875
-1.91,1687331063.1875
-5.33,1687331063.203125
-8.57,1687331063.21875
-11.65,1687331063.234375
-14.67,1687331063.25
-17.84,1687331063.265625
-21.41,1687331063.28125
-25.66,1687331063.296875
-30.74,1687331063.3125
-36.47,1687331063.328125
-42.20,1687331063.34375
-46.88,1687331063.359375
-49.27,1687331063.375
-48.34,1687331063.390625
-43.64,1687331063.40625
-35.44,1687331063.421875
-24.62,1687331063.4375
-12.38,1687331063.453125
0.12,1687331063.46875
11.89,1687331063.484375
22.20,1687331063.5
30.53,1687331063.515625
36.49,1687331063.53125
39.88,1687331063.546875
40.72,1687331063.5625
39.34,1687331063.578125
36.34,1687331063.59375
32.50,1687331063.609375
28.56,1687331063.625
25.04,1687331063.640625
22.16,1687331063.65625
19.83,1687331063.671875
17.86,1687331063.6875
16.12,1687331063.703125
14.65,1687331063.71875
13.63,1687331063.734375
13.22,1687331063.75
13.40,1687331063.765625
13.86,1687331063.78125
14.12,1687331063.796875
13.64,1687331063.8125
12.09,1687331063.828125
9.44,1687331063.84375
5.93,1687331063.859375
1.96,1687331063.875
-2.12,1687331063.890625
-6.12,1687331063.90625
-10.06,1687331063.921875
-14.10,1687331063.9375
-18.46,1687331063.953125
-23.38,1687331063.96875
-28.99,1687331063.984375
-35.28,1687331064.0
-41.93,1687331064.015625
-48.27,1687331064.03125
-53.25,1687331064.046875
-55.69,1687331064.0625
-54.54,1687331064.078125
-49.31,1687331064.09375
-40.25,1687331064.109375
-28.28,1687331064.125
-14.75,1687331064.140625
-1.00,1687331064.15625
11.88,1687331064.171875
23.18,1687331064.1875
32.43,1687331064.203125
39.33,1687331064.21875
43.61,1687331064.234375
45.18,1687331064.25
44.24,1687331064.265625
41.28,1687331064.28125
37.09,1687331064.296875
32.55,1687331064.3125
28.38,1687331064.328125
25.01,1687331064.34375
22.55,1687331064.359375
20.84,1687331064.375
19.62,1687331064.390625
18.64,1687331064.40625
17.75,1687331064.421875
16.93,1687331064.4375
16.22,1687331064.453125
15.63,1687331064.46875
15.00,1687331064.484375
14.04,1687331064.5
12.41,1687331064.515625
9.81,1687331064.53125
6.15,1687331064.546875
1.64,1687331064.5625
-3.34,1687331064.578125
-8.36,1687331064.59375
-13.16,1687331064.609375
-17.70,1687331064.625
-22.26,1687331064.640625
-27.24,1687331064.65625
-33.02,1687331064.671875
-39.73,1687331064.6875
-47.03,1687331064.703125
-54.11,1687331064.71875
-59.75,1687331064.734375
-62.63,1687331064.75
-61.64,1687331064.765625
-56.29,1687331064.78125
-46.83,1687331064.796875
-34.16,1687331064.8125
-19.64,1687331064.828125
-4.63,1687331064.84375
9.73,1687331064.859375
22.60,1687331064.875
33.38,1687331064.890625
41.62,1687331064.90625
46.98,1687331064.921875
49.29,1687331064.9375
48.70,1687331064.953125
45.80,1687331064.96875
41.49,1687331064.984375
36.81,1687331065.0
32.61,1687331065.015625
29.40,1687331065.03125
27.23,1687331065.046875
25.87,1687331065.0625
24.96,1687331065.078125
24.22,1687331065.09375
23.48,1687331065.109375
22.71,1687331065.125
21.87,1687331065.140625
20.89,1687331065.15625
19.65,1687331065.171875
18.02,1687331065.1875
15.95,1687331065.203125
13.41,1687331065.21875
10.41,1687331065.234375
6.97,1687331065.25
3.09,1687331065.265625
-1.19,1687331065.28125
-5.78,1687331065.296875
-10.61,1687331065.3125
-15.62,1687331065.328125
-20.91,1687331065.34375
-26.69,1687331065.359375
-33.15,1687331065.375
-40.28,1687331065.390625
-47.58,1687331065.40625
-54.11,1687331065.421875
-58.59,1687331065.4375
-59.76,1687331065.453125
-56.77,1687331065.46875
-49.45,1687331065.484375
-38.37,1687331065.5
-24.69,1687331065.515625
-9.85,1687331065.53125
4.75,1687331065.546875
17.92,1687331065.5625
28.90,1687331065.578125
37.32,1687331065.59375
43.08,1687331065.609375
46.29,1687331065.625
47.16,1687331065.640625
46.00,1687331065.65625
43.26,1687331065.671875
39.56,1687331065.6875
35.57,1687331065.703125
31.94,1687331065.71875
29.10,1687331065.734375
27.23,1687331065.75
26.22,1687331065.765625
25.77,1687331065.78125
25.60,1687331065.796875
25.46,1687331065.8125
25.23,1687331065.828125
24.84,1687331065.84375
24.21,1687331065.859375
23.19,1687331065.875
21.54,1687331065.890625
19.02,1687331065.90625
15.47,1687331065.921875
10.93,1687331065.9375
5.68,1687331065.953125
0.25,1687331065.96875
-4.82,1687331065.984375
-9.10,1687331066.0
-12.54,1687331066.015625
-15.50,1687331066.03125
-18.61,1687331066.046875
-22.57,1687331066.0625
-27.86,1687331066.078125
-34.55,1687331066.09375
-42.22,1687331066.109375
-50.01,1687331066.125
-56.80,1687331066.140625
-61.39,1687331066.15625
-62.72,1687331066.171875
-60.02,1687331066.1875
-53.08,1687331066.203125
-42.31,1687331066.21875
-28.75,1687331066.234375
-13.87,1687331066.25
0.75,1687331066.265625
13.78,1687331066.28125
24.37,1687331066.296875
32.20,1687331066.3125
37.32,1687331066.328125
40.03,1687331066.34375
40.66,1687331066.359375
39.57,1687331066.375
37.14,1687331066.390625
33.85,1687331066.40625
30.29,1687331066.421875
27.00,1687331066.4375
24.43,1687331066.453125
22.77,1687331066.46875
21.98,1687331066.484375
21.78,1687331066.5
21.78,1687331066.515625
21.66,1687331066.53125
21.22,1687331066.546875
20.45,1687331066.5625
19.49,1687331066.578125
18.46,1687331066.59375
17.35,1687331066.609375
16.00,1687331066.625
14.08,1687331066.640625
11.30,1687331066.65625
7.58,1687331066.671875
3.09,1687331066.6875
-1.74,1687331066.703125
-6.46,1687331066.71875
-10.71,1687331066.734375
-14.40,1687331066.75
-17.70,1687331066.765625
-21.00,1687331066.78125
-24.66,1687331066.796875
-29.02,1687331066.8125
-34.18,1687331066.828125
-40.11,1687331066.84375
-46.53,1687331066.859375
-52.88,1687331066.875
-58.30,1687331066.890625
-61.75,1687331066.90625
-62.12,1687331066.921875
-58.61,1687331066.9375
-50.93,1687331066.953125
-39.48,1687331066.96875
-25.34,1687331066.984375
-9.98,1687331067.0
5.04,1687331067.015625
18.39,1687331067.03125
29.21,1687331067.046875
37.10,1687331067.0625
42.07,1687331067.078125
44.38,1687331067.09375
44.42,1687331067.109375
42.66,1687331067.125
39.63,1687331067.140625
35.93,1687331067.15625
32.22,1687331067.171875
29.10,1687331067.1875
26.97,1687331067.203125
25.94,1687331067.21875
25.77,1687331067.234375
26.07,1687331067.25
26.42,1687331067.265625
26.55,1687331067.28125
26.36,1687331067.296875
25.87,1687331067.3125
25.14,1687331067.328125
24.17,1687331067.34375
22.88,1687331067.359375
21.16,1687331067.375
18.84,1687331067.390625
15.86,1687331067.40625
12.22,1687331067.421875
8.06,1687331067.4375
3.61,1687331067.453125
-0.87,1687331067.46875
-5.19,1687331067.484375
-9.30,1687331067.5
-13.30,1687331067.515625
-17.38,1687331067.53125
-21.81,1687331067.546875
-26.85,1687331067.5625
-32.67,1687331067.578125
-39.21,1687331067.59375
-46.05,1687331067.609375
-52.38,1687331067.625
-57.01,1687331067.640625
-58.72,1687331067.65625
-56.58,1687331067.671875
-50.26,1687331067.6875
-40.17,1687331067.703125
-27.34,1687331067.71875
-13.15,1687331067.734375
1.00,1687331067.75
13.91,1687331067.765625
24.72,1687331067.78125
32.85,1687331067.796875
38.03,1687331067.8125
40.25,1687331067.828125
39.86,1687331067.84375
37.45,1687331067.859375
33.85,1687331067.875
29.90,1687331067.890625
26.36,1687331067.90625
23.67,1687331067.921875
22.04,1687331067.9375
21.40,1687331067.953125
21.51,1687331067.96875
22.10,1687331067.984375
22.84,1687331068.0
23.48,1687331068.015625
23.77,1687331068.03125
23.58,1687331068.046875
22.85,1687331068.0625
21.57,1687331068.078125
19.73,1687331068.09375
17.27,1687331068.109375
14.10,1687331068.125
10.19,1687331068.140625
5.66,1687331068.15625
0.79,1687331068.171875
-4.10,1687331068.1875
-8.69,1687331068.203125
-12.86,1687331068.21875
-16.65,1687331068.234375
-20.22,1687331068.25
-23.80,1687331068.265625
-27.63,1687331068.28125
-32.01,1687331068.296875
-37.22,1687331068.3125
-43.44,1687331068.328125
-50.54,1687331068.34375
-57.88,1687331068.359375
-64.35,1687331068.375
-68.54,1687331068.390625
-69.14,1687331068.40625
-65.33,1687331068.421875
-57.06,1687331068.4375
-45.06,1687331068.453125
-30.62,1687331068.46875
-15.27,1687331068.484375
-0.37,1687331068.5
13.01,1687331068.515625
24.14,1687331068.53125
32.65,1687331068.546875
38.38,1687331068.5625
41.44,1687331068.578125
42.12,1687331068.59375
40.91,1687331068.609375
38.45,1687331068.625
35.40,1687331068.640625
32.39,1687331068.65625
29.88,1687331068.671875
28.19,1687331068.6875
27.43,1687331068.703125
27.51,1687331068.71875
28.19,1687331068.734375
29.07,1687331068.75
29.72,1687331068.765625
29.80,1687331068.78125
29.14,1687331068.796875
27.73,1687331068.8125
25.76,1687331068.828125
23.42,1687331068.84375
20.83,1687331068.859375
18.01,1687331068.875
14.86,1687331068.890625
11.28,1687331068.90625
7.23,1687331068.921875
2.77,1687331068.9375
-1.95,1687331068.953125
-6.70,1687331068.96875
-11.27,1687331068.984375
-15.54,1687331069.0
-19.48,1687331069.015625
-23.19,1687331069.03125
-26.92,1687331069.046875
-31.00,1687331069.0625
-35.79,1687331069.078125
-41.52,1687331069.09375
-48.14,1687331069.109375
-55.08,1687331069.125
-61.32,1687331069.140625
-65.52,1687331069.15625
-66.39,1687331069.171875
-63.05,1687331069.1875
-55.32,1687331069.203125
-43.78,1687331069.21875
-29.62,1687331069.234375
-14.41,1687331069.25
0.32,1687331069.265625
13.32,1687331069.28125
23.80,1687331069.296875
31.46,1687331069.3125
36.42,1687331069.328125
39.06,1687331069.34375
39.88,1687331069.359375
39.35,1687331069.375
37.88,1687331069.390625
35.85,1687331069.40625
33.65,1687331069.421875
31.64,1687331069.4375
30.14,1687331069.453125
29.32,1687331069.46875
29.20,1687331069.484375
29.62,1687331069.5
30.31,1687331069.515625
30.97,1687331069.53125
31.34,1687331069.546875
31.27,1687331069.5625
30.65,1687331069.578125
29.45,1687331069.59375
27.68,1687331069.609375
25.38,1687331069.625
22.64,1687331069.640625
19.63,1687331069.65625
16.50,1687331069.671875
13.45,1687331069.6875
10.57,1687331069.703125
7.81,1687331069.71875
5.00,1687331069.734375
1.84,1687331069.75
-1.91,1687331069.765625
-6.37,1687331069.78125
-11.39,1687331069.796875
-16.63,1687331069.8125
-21.66,1687331069.828125
-26.14,1687331069.84375
-30.02,1687331069.859375
-33.57,1687331069.875
-37.32,1687331069.890625
-41.83,1687331069.90625
-47.43,1687331069.921875
-53.92,1687331069.9375
-60.58,1687331069.953125
-66.16,1687331069.96875
-69.27,1687331069.984375
-68.67,1687331070.0
-63.69,1687331070.015625
-54.44,1687331070.03125
-41.85,1687331070.046875
-27.36,1687331070.0625
-12.60,1687331070.078125
1.06,1687331070.09375
12.74,1687331070.109375
22.15,1687331070.125
29.31,1687331070.140625
34.35,1687331070.15625
37.36,1687331070.171875
38.43,1687331070.1875
37.73,1687331070.203125
35.68,1687331070.21875
32.91,1687331070.234375
30.13,1687331070.25
27.90,1687331070.265625
26.51,1687331070.28125
25.92,1687331070.296875
25.89,1687331070.3125
26.19,1687331070.328125
26.65,1687331070.34375
27.23,1687331070.359375
27.88,1687331070.375
28.53,1687331070.390625
29.02,1687331070.40625
29.09,1687331070.421875
28.48,1687331070.4375
27.03,1687331070.453125
24.72,1687331070.46875
21.74,1687331070.484375
18.32,1687331070.5
14.76,1687331070.515625
11.24,1687331070.53125
7.89,1687331070.546875
4.69,1687331070.5625
1.55,1687331070.578125
-1.69,1687331070.59375
-5.23,1687331070.609375
-9.13,1687331070.625
-13.38,1687331070.640625
-17.77,1687331070.65625
-22.01,1687331070.671875
-25.79,1687331070.6875
-29.00,1687331070.703125
-31.78,1687331070.71875
-34.51,1687331070.734375
-37.71,1687331070.75
-41.84,1687331070.765625
-47.08,1687331070.78125
-53.19,1687331070.796875
-59.43,1687331070.8125
-64.73,1687331070.828125
-67.84,1687331070.84375
-67.60,1687331070.859375
-63.35,1687331070.875
-55.03,1687331070.890625
-43.29,1687331070.90625
-29.29,1687331070.921875
-14.45,1687331070.9375
-0.16,1687331070.953125
12.52,1687331070.96875
22.97,1687331070.984375
30.93,1687331071.0
36.44,1687331071.015625
39.66,1687331071.03125
40.82,1687331071.046875
40.20,1687331071.0625
38.17,1687331071.078125
35.22,1687331071.09375
31.96,1687331071.109375
29.02,1687331071.125
26.91,1687331071.140625
25.92,1687331071.15625
26.05,1687331071.171875
27.05,1687331071.1875
28.52,1687331071.203125
30.02,1687331071.21875
31.20,1687331071.234375
31.87,1687331071.25
31.97,1687331071.265625
31.50,1687331071.28125
30.42,1687331071.296875
28.64,1687331071.3125
26.07,1687331071.328125
22.76,1687331071.34375
18.94,1687331071.359375
15.00,1687331071.375
11.31,1687331071.390625
8.05,1687331071.40625
5.09,1687331071.421875
2.15,1687331071.4375
-1.07,1687331071.453125
-4.69,1687331071.46875
-8.59,1687331071.484375
-12.56,1687331071.5
-16.41,1687331071.515625
-20.12,1687331071.53125
-23.86,1687331071.546875
-27.88,1687331071.5625
-32.39,1687331071.578125
-37.47,1687331071.59375
-43.01,1687331071.609375
-48.63,1687331071.625
-53.72,1687331071.640625
-57.45,1687331071.65625
-58.95,1687331071.671875
-57.46,1687331071.6875
-52.55,1687331071.703125
-44.25,1687331071.71875
-33.13,1687331071.734375
-20.20,1687331071.75
-6.71,1687331071.765625
6.03,1687331071.78125
17.01,1687331071.796875
25.57,1687331071.8125
31.51,1687331071.828125
34.99,1687331071.84375
36.38,1687331071.859375
36.08,1687331071.875
34.50,1687331071.890625
32.02,1687331071.90625
29.11,1687331071.921875
26.31,1687331071.9375
24.15,1687331071.953125
23.01,1687331071.96875
22.98,1687331071.984375
23.85,1687331072.0
25.16,1687331072.015625
26.41,1687331072.03125
27.22,1687331072.046875
27.40,1687331072.0625
27.01,1687331072.078125
26.15,1687331072.09375
24.92,1687331072.109375
23.34,1687331072.125
21.31,1687331072.140625
18.79,1687331072.15625
15.87,1687331072.171875
12.75,1687331072.1875
9.74,1687331072.203125
7.05,1687331072.21875
4.70,1687331072.234375
2.54,1687331072.25
0.25,1687331072.265625
-2.47,1687331072.28125
-5.77,1687331072.296875
-9.61,1687331072.3125
-13.73,1687331072.328125
-17.81,1687331072.34375
-21.53,1687331072.359375
-24.76,1687331072.375
-27.57,1687331072.390625
-30.22,1687331072.40625
-33.10,1687331072.421875
-36.63,1687331072.4375
-41.10,1687331072.453125
-46.55,1687331072.46875
-52.64,1687331072.484375
-58.64,1687331072.5
-63.47,1687331072.515625
-65.87,1687331072.53125
-64.81,1687331072.546875
-59.70,1687331072.5625
-50.69,1687331072.578125
-38.63,1687331072.59375
-24.86,1687331072.609375
-10.85,1687331072.625
2.19,1687331072.640625
13.43,1687331072.65625
22.51,1687331072.671875
29.37,1687331072.6875
34.11,1687331072.703125
36.88,1687331072.71875
37.86,1687331072.734375
37.31,1687331072.75
35.61,1687331072.765625
33.22,1687331072.78125
30.69,1687331072.796875
28.49,1687331072.8125
26.95,1687331072.828125
26.20,1687331072.84375
26.15,1687331072.859375
26.57,1687331072.875
27.13,1687331072.890625
27.58,1687331072.90625
27.73,1687331072.921875
27.56,1687331072.9375
27.15,1687331072.953125
26.63,1687331072.96875
26.01,1687331072.984375
25.19,1687331073.0
23.96,1687331073.015625
22.16,1687331073.03125
19.72,1687331073.046875
16.80,1687331073.0625
13.68,1687331073.078125
10.66,1687331073.09375
7.92,1687331073.109375
5.46,1687331073.125
3.10,1687331073.140625
0.58,1687331073.15625
-2.28,1687331073.171875
-5.55,1687331073.1875
-9.14,1687331073.203125
-12.84,1687331073.21875
-16.45,1687331073.234375
-19.85,1687331073.25
-23.04,1687331073.265625
-26.08,1687331073.28125
-29.11,1687331073.296875
-32.33,1687331073.3125
-35.99,1687331073.328125
-40.34,1687331073.34375
-45.54,1687331073.359375
-51.45,1687331073.375
-57.49,1687331073.390625
-62.62,1687331073.40625
-65.61,1687331073.421875
-65.32,1687331073.4375
-61.20,1687331073.453125
-53.34,1687331073.46875
-42.44,1687331073.484375
-29.58,1687331073.5
-15.94,1687331073.515625
-2.64,1687331073.53125
9.32,1687331073.546875
19.15,1687331073.5625
26.34,1687331073.578125
30.77,1687331073.59375
32.73,1687331073.609375
32.79,1687331073.625
31.60,1687331073.640625
29.77,1687331073.65625
27.73,1687331073.671875
25.84,1687331073.6875
24.33,1687331073.703125
23.40,1687331073.71875
23.11,1687331073.734375
23.38,1687331073.75
24.03,1687331073.765625
24.83,1687331073.78125
25.56,1687331073.796875
26.06,1687331073.8125
26.24,1687331073.828125
26.09,1687331073.84375
25.62,1687331073.859375
24.86,1687331073.875
23.80,1687331073.890625
22.36,1687331073.90625
20.40,1687331073.921875
17.87,1687331073.9375
14.85,1687331073.953125
11.61,1687331073.96875
8.50,1687331073.984375
5.78,1687331074.0
3.45,1687331074.015625
1.24,1687331074.03125
-1.24,1687331074.046875
-4.27,1687331074.0625
-7.86,1687331074.078125
-11.76,1687331074.09375
-15.61,1687331074.109375
-19.18,1687331074.125
-22.41,1687331074.140625
-25.49,1687331074.15625
-28.70,1687331074.171875
-32.32,1687331074.1875
-36.52,1687331074.203125
-41.33,1687331074.21875
-46.65,1687331074.234375
-52.15,1687331074.25
-57.25,1687331074.265625
-61.12,1687331074.28125
-62.80,1687331074.296875
-61.41,1687331074.3125
-56.53,1687331074.328125
-48.34,1687331074.34375
-37.63,1687331074.359375
-25.58,1687331074.375
-13.40,1687331074.390625
-2.06,1687331074.40625
7.87,1687331074.421875
16.09,1687331074.4375
22.47,1687331074.453125
26.92,1687331074.46875
29.45,1687331074.484375
30.19,1687331074.5
29.46,1687331074.515625
27.78,1687331074.53125
25.70,1687331074.546875
23.64,1687331074.5625
21.88,1687331074.578125
20.54,1687331074.59375
19.69,1687331074.609375
19.39,1687331074.625
19.71,1687331074.640625
20.61,1687331074.65625
21.87,1687331074.671875
23.15,1687331074.6875
24.05,1687331074.703125
24.28,1687331074.71875
23.73,1687331074.734375
22.41,1687331074.75
20.48,1687331074.765625
18.11,1687331074.78125
15.46,1687331074.796875
12.68,1687331074.8125
9.92,1687331074.828125
7.29,1687331074.84375
4.78,1687331074.859375
2.31,1687331074.875
-0.28,1687331074.890625
-3.13,1687331074.90625
-6.25,1687331074.921875
-9.52,1687331074.9375
-12.73,1687331074.953125
-15.69,1687331074.96875
-18.32,1687331074.984375
-20.69,1687331075.0
-23.02,1687331075.015625
-25.61,1687331075.03125
-28.76,1687331075.046875
-32.65,1687331075.0625
-37.23,1687331075.078125
-42.10,1687331075.09375
-46.49,1687331075.109375
-49.35,1687331075.125
-49.59,1687331075.140625
-46.46,1687331075.15625
-39.81,1687331075.171875
-30.19,1687331075.1875
-18.73,1687331075.203125
-6.81,1687331075.21875
4.35,1687331075.234375
13.94,1687331075.25
21.60,1687331075.265625
27.30,1687331075.28125
31.09,1687331075.296875
33.03,1687331075.3125
33.23,1687331075.328125
31.94,1687331075.34375
29.62,1687331075.359375
26.90,1687331075.375
24.33,1687331075.390625
22.27,1687331075.40625
20.82,1687331075.421875
19.92,1687331075.4375
19.43,1687331075.453125
19.29,1687331075.46875
19.46,1687331075.484375
19.86,1687331075.5
20.31,1687331075.515625
20.56,1687331075.53125
20.38,1687331075.546875
19.58,1687331075.5625
18.18,1687331075.578125
16.33,1687331075.59375
14.23,1687331075.609375
12.04,1687331075.625
9.82,1687331075.640625
7.54,1687331075.65625
5.06,1687331075.671875
2.20,1687331075.6875
-1.14,1687331075.703125
-4.98,1687331075.71875
-9.16,1687331075.734375
-13.42,1687331075.75
-17.45,1687331075.765625
-21.07,1687331075.78125
-24.26,1687331075.796875
-27.22,1687331075.8125
-30.34,1687331075.828125
-34.04,1687331075.84375
-38.61,1687331075.859375
-44.01,1687331075.875
-49.80,1687331075.890625
-55.14,1687331075.90625
-58.96,1687331075.921875
-60.23,1687331075.9375
-58.23,1687331075.953125
-52.74,1687331075.96875
-44.05,1687331075.984375
-32.95,1687331076.0
-20.49,1687331076.015625
-7.83,1687331076.03125
3.98,1687331076.046875
14.12,1687331076.0625
22.07,1687331076.078125
27.69,1687331076.09375
31.11,1687331076.109375
32.74,1687331076.125
33.03,1687331076.140625
32.40,1687331076.15625
31.16,1687331076.171875
29.49,1687331076.1875
27.56,1687331076.203125
25.57,1687331076.21875
23.76,1687331076.234375
22.39,1687331076.25
21.57,1687331076.265625
21.29,1687331076.28125
21.42,1687331076.296875
21.74,1687331076.3125
22.02,1687331076.328125
22.05,1687331076.34375
21.66,1687331076.359375
20.71,1687331076.375
19.17,1687331076.390625
17.13,1687331076.40625
14.68,1687331076.421875
11.97,1687331076.4375
9.08,1687331076.453125
6.01,1687331076.46875
2.78,1687331076.484375
-0.62,1687331076.5
-4.09,1687331076.515625
-7.58,1687331076.53125
-11.02,1687331076.546875
-14.40,1687331076.5625
-17.73,1687331076.578125
-21.03,1687331076.59375
-24.32,1687331076.609375
-27.65,1687331076.625
-31.21,1687331076.640625
-35.27,1687331076.65625
-40.08,1687331076.671875
-45.63,1687331076.6875
-51.46,1687331076.703125
-56.61,1687331076.71875
-59.81,1687331076.734375
-59.87,1687331076.75
-56.04,1687331076.765625
-48.34,1687331076.78125
-37.52,1687331076.796875
-24.88,1687331076.8125
-11.87,1687331076.828125
0.29,1687331076.84375
10.82,1687331076.859375
19.42,1687331076.875
26.07,1687331076.890625
30.86,1687331076.90625
33.86,1687331076.921875
35.15,1687331076.9375
34.88,1687331076.953125
33.37,1687331076.96875
31.07,1687331076.984375
28.55,1687331077.0
26.29,1687331077.015625
24.60,1687331077.03125
23.59,1687331077.046875
23.16,1687331077.0625
23.12,1687331077.078125
23.23,1687331077.09375
23.32,1687331077.109375
23.27,1687331077.125
23.02,1687331077.140625
22.46,1687331077.15625
21.48,1687331077.171875
19.98,1687331077.1875
17.89,1687331077.203125
15.26,1687331077.21875
12.24,1687331077.234375
9.08,1687331077.25
5.99,1687331077.265625
3.05,1687331077.28125
0.19,1687331077.296875
-2.77,1687331077.3125
-5.98,1687331077.328125
-9.47,1687331077.34375
-13.10,1687331077.359375
-16.67,1687331077.375
-20.04,1687331077.390625
-23.31,1687331077.40625
-26.83,1687331077.421875
-31.12,1687331077.4375
-36.55,1687331077.453125
-43.07,1687331077.46875
-50.04,1687331077.484375
-56.29,1687331077.5
-60.38,1687331077.515625
-61.04,1687331077.53125
-57.55,1687331077.546875
-49.97,1687331077.5625
-39.06,1687331077.578125
-26.14,1687331077.59375
-12.73,1687331077.609375
-0.14,1687331077.625
10.72,1687331077.640625
19.42,1687331077.65625
25.95,1687331077.671875
30.53,1687331077.6875
33.43,1687331077.703125
34.87,1687331077.71875
35.03,1687331077.734375
34.08,1687331077.75
32.32,1687331077.765625
30.09,1687331077.78125
27.85,1687331077.796875
25.91,1687331077.8125
24.46,1687331077.828125
23.47,1687331077.84375
22.81,1687331077.859375
22.35,1687331077.875
22.03,1687331077.890625
21.86,1687331077.90625
21.81,1687331077.921875
21.69,1687331077.9375
21.22,1687331077.953125
20.04,1687331077.96875
18.04,1687331077.984375
15.36,1687331078.0
12.36,1687331078.015625
9.45,1687331078.03125
6.82,1687331078.046875
4.38,1687331078.0625
1.89,1687331078.078125
-0.84,1687331078.09375
-3.82,1687331078.109375
-6.89,1687331078.125
-9.82,1687331078.140625
-12.55,1687331078.15625
-15.27,1687331078.171875
-18.31,1687331078.1875
-21.99,1687331078.203125
-26.45,1687331078.21875
-31.57,1687331078.234375
-37.00,1687331078.25
-42.15,1687331078.265625
-46.31,1687331078.28125
-48.68,1687331078.296875
-48.53,1687331078.3125
-45.38,1687331078.328125
-39.09,1687331078.34375
-29.98,1687331078.359375
-18.75,1687331078.375
-6.44,1687331078.390625
5.86,1687331078.40625
17.12,1687331078.421875
26.61,1687331078.4375
33.94,1687331078.453125
39.01,1687331078.46875
41.93,1687331078.484375
42.87,1687331078.5
42.04,1687331078.515625
39.74,1687331078.53125
36.40,1687331078.546875
32.69,1687331078.5625
29.30,1687331078.578125
26.84,1687331078.59375
25.54,1687331078.609375
25.24,1687331078.625
25.48,1687331078.640625
25.76,1687331078.65625
25.74,1687331078.671875
25.41,1687331078.6875
24.92,1687331078.703125
24.48,1687331078.71875
24.11,1687331078.734375
23.60,1687331078.75
22.57,1687331078.765625
20.69,1687331078.78125
17.83,1687331078.796875
14.09,1687331078.8125
9.82,1687331078.828125
5.34,1687331078.84375
0.86,1687331078.859375
-3.60,1687331078.875
-8.18,1687331078.890625
-13.02,1687331078.90625
-18.18,1687331078.921875
-23.62,1687331078.9375
-29.25,1687331078.953125
-35.01,1687331078.96875
-40.87,1687331078.984375
-46.69,1687331079.0
-52.08,1687331079.015625
-56.27,1687331079.03125
-58.25,1687331079.046875
-57.02,1687331079.0625
-52.02,1687331079.078125
-43.37,1687331079.09375
-31.96,1687331079.109375
-19.11,1687331079.125
-6.26,1687331079.140625
5.49,1687331079.15625
15.44,1687331079.171875
23.31,1687331079.1875
29.04,1687331079.203125
32.69,1687331079.21875
34.42,1687331079.234375
34.51,1687331079.25
33.39,1687331079.265625
31.51,1687331079.28125
29.35,1687331079.296875
27.25,1687331079.3125
25.45,1687331079.328125
24.12,1687331079.34375
23.40,1687331079.359375
23.30,1687331079.375
23.73,1687331079.390625
24.41,1687331079.40625
24.95,1687331079.421875
25.01,1687331079.4375
24.36,1687331079.453125
23.05,1687331079.46875
21.25,1687331079.484375
19.16,1687331079.5
16.91,1687331079.515625
14.48,1687331079.53125
11.75,1687331079.546875
8.52,1687331079.5625
4.69,1687331079.578125
0.27,1687331079.59375
-4.54,1687331079.609375
-9.49,1687331079.625
-14.28,1687331079.640625
-18.65,1687331079.65625
-22.50,1687331079.671875
-25.83,1687331079.6875
-28.80,1687331079.703125
-31.74,1687331079.71875
-35.04,1687331079.734375
-39.10,1687331079.75
-44.09,1687331079.765625
-49.83,1687331079.78125
-55.63,1687331079.796875
-60.39,1687331079.8125
-62.87,1687331079.828125
-62.04,1687331079.84375
-57.38,1687331079.859375
-49.06,1687331079.875
-37.90,1687331079.890625
-25.14,1687331079.90625
-12.10,1687331079.921875
0.06,1687331079.9375
10.57,1687331079.953125
19.06,1687331079.96875
25.51,1687331079.984375
30.09,1687331080.0
33.04,1687331080.015625
34.56,1687331080.03125
34.90,1687331080.046875
34.30,1687331080.0625
33.08,1687331080.078125
31.57,1687331080.09375
30.05,1687331080.109375
28.74,1687331080.125
27.71,1687331080.140625
26.95,1687331080.15625
26.36,1687331080.171875
25.83,1687331080.1875
25.24,1687331080.203125
24.51,1687331080.21875
23.64,1687331080.234375
22.63,1687331080.25
21.46,1687331080.265625
20.11,1687331080.28125
18.49,1687331080.296875
16.49,1687331080.3125
14.00,1687331080.328125
11.02,1687331080.34375
7.57,1687331080.359375
3.80,1687331080.375
-0.12,1687331080.390625
-4.06,1687331080.40625
-7.92,1687331080.421875
-11.66,1687331080.4375
-15.26,1687331080.453125
-18.69,1687331080.46875
-22.01,1687331080.484375
-25.33,1687331080.5
-28.90,1687331080.515625
-33.03,1687331080.53125
-37.93,1687331080.546875
-43.56,1687331080.5625
-49.48,1687331080.578125
-54.74,1687331080.59375
-58.12,1687331080.609375
-58.41,1687331080.625
-54.85,1687331080.640625
-47.39,1687331080.65625
-36.72,1687331080.671875
-24.08,1687331080.6875
-10.89,1687331080.703125
1.65,1687331080.71875
12.73,1687331080.734375
21.93,1687331080.75
29.15,1687331080.765625
34.38,1687331080.78125
37.69,1687331080.796875
39.19,1687331080.8125
39.13,1687331080.828125
37.88,1687331080.84375
35.90,1687331080.859375
33.63,1687331080.875
31.41,1687331080.890625
29.47,1687331080.90625
27.94,1687331080.921875
26.85,1687331080.9375
26.20,1687331080.953125
25.94,1687331080.96875
25.94,1687331080.984375
26.09,1687331081.0
26.21,1687331081.015625
26.14,1687331081.03125
25.67,1687331081.046875
24.66,1687331081.0625
22.99,1687331081.078125
20.70,1687331081.09375
17.88,1687331081.109375
14.71,1687331081.125
11.33,1687331081.140625
7.80,1687331081.15625
4.09,1687331081.171875
0.18,1687331081.1875
-3.85,1687331081.203125
-7.89,1687331081.21875
-11.79,1687331081.234375
-15.51,1687331081.25
-19.13,1687331081.265625
-22.86,1687331081.28125
-26.97,1687331081.296875
-31.71,1687331081.3125
-37.24,1687331081.328125
-43.43,1687331081.34375
-49.83,1687331081.359375
-55.58,1687331081.375
-59.59,1687331081.390625
-60.78,1687331081.40625
-58.42,1687331081.421875
-52.36,1687331081.4375
-43.07,1687331081.453125
-31.54,1687331081.46875
-18.92,1687331081.484375
-6.36,1687331081.5
5.27,1687331081.515625
15.36,1687331081.53125
23.60,1687331081.546875
29.88,1687331081.5625
34.21,1687331081.578125
36.76,1687331081.59375
37.72,1687331081.609375
37.41,1687331081.625
36.22,1687331081.640625
34.54,1687331081.65625
32.76,1687331081.671875
31.13,1687331081.6875
29.78,1687331081.703125
28.72,1687331081.71875
27.94,1687331081.734375
27.46,1687331081.75
27.28,1687331081.765625
27.35,1687331081.78125
27.49,1687331081.796875
27.40,1687331081.8125
26.78,1687331081.828125
25.42,1687331081.84375
23.32,1687331081.859375
20.64,1687331081.875
17.66,1687331081.890625
14.62,1687331081.90625
11.56,1687331081.921875
8.43,1687331081.9375
5.08,1687331081.953125
1.42,1687331081.96875
-2.55,1687331081.984375
-6.69,1687331082.0
-10.81,1687331082.015625
-14.74,1687331082.03125
-18.39,1687331082.046875
-21.79,1687331082.0625
-25.12,1687331082.078125
-28.62,1687331082.09375
-32.57,1687331082.109375
-37.18,1687331082.125
-42.53,1687331082.140625
-48.44,1687331082.15625
-54.42,1687331082.171875
-59.67,1687331082.1875
-63.21,1687331082.203125
-64.10,1687331082.21875
-61.68,1687331082.234375
-55.72,1687331082.25
-46.57,1687331082.265625
-35.03,1687331082.28125
-22.24,1687331082.296875
-9.35,1687331082.3125
2.66,1687331082.328125
13.14,1687331082.34375
21.78,1687331082.359375
28.54,1687331082.375
33.46,1687331082.390625
36.65,1687331082.40625
38.23,1687331082.421875
38.46,1687331082.4375
37.67,1687331082.453125
36.29,1687331082.46875
34.73,1687331082.484375
33.30,1687331082.5
32.09,1687331082.515625
31.07,1687331082.53125
30.14,1687331082.546875
29.22,1687331082.5625
28.34,1687331082.578125
27.54,1687331082.59375
26.86,1687331082.609375
26.22,1687331082.625
25.43,1687331082.640625
24.29,1687331082.65625
22.64,1687331082.671875
20.44,1687331082.6875
17.80,1687331082.703125
14.93,1687331082.71875
12.03,1687331082.734375
9.23,1687331082.75
6.57,1687331082.765625
3.96,1687331082.78125
1.27,1687331082.796875
-1.70,1687331082.8125
-5.12,1687331082.828125
-9.01,1687331082.84375
-13.31,1687331082.859375
-17.71,1687331082.875
-21.88,1687331082.890625
-25.54,1687331082.90625
-28.69,1687331082.921875
-31.66,1687331082.9375
-35.00,1687331082.953125
-39.25,1687331082.96875
-44.65,1687331082.984375
-50.89,1687331083.0
-57.18,1687331083.015625
-62.31,1687331083.03125
-65.08,1687331083.046875
-64.48,1687331083.0625
-60.08,1687331083.078125
-52.05,1687331083.09375
-41.19,1687331083.109375
-28.72,1687331083.125
-16.03,1687331083.140625
-4.28,1687331083.15625
5.74,1687331083.171875
13.76,1687331083.1875
19.84,1687331083.203125
24.28,1687331083.21875
27.33,1687331083.234375
29.17,1687331083.25
29.90,1687331083.265625
29.62,1687331083.28125
28.57,1687331083.296875
27.05,1687331083.3125
25.44,1687331083.328125
24.04,1687331083.34375
22.95,1687331083.359375
22.15,1687331083.375
21.51,1687331083.390625
20.92,1687331083.40625
20.38,1687331083.421875
19.97,1687331083.4375
19.75,1687331083.453125
19.68,1687331083.46875
19.55,1687331083.484375
19.08,1687331083.5
18.01,1687331083.515625
16.21,1687331083.53125
13.76,1687331083.546875
10.88,1687331083.5625
7.85,1687331083.578125
4.86,1687331083.59375
1.92,1687331083.609375
-1.13,1687331083.625
-4.51,1687331083.640625
-8.41,1687331083.65625
-12.85,1687331083.671875
-17.66,1687331083.6875
-22.61,1687331083.703125
-27.41,1687331083.71875
-31.96,1687331083.734375
-36.28,1687331083.75
-40.57,1687331083.765625
-45.09,1687331083.78125
-50.12,1687331083.796875
-55.92,1687331083.8125
-62.64,1687331083.828125
-70.27,1687331083.84375
-78.46,1687331083.859375
-86.52,1687331083.875
-93.47,1687331083.890625
-98.27,1687331083.90625
-100.10,1687331083.921875
-98.61,1687331083.9375
-94.06,1687331083.953125
-87.22,1687331083.96875
-79.20,1687331083.984375
-71.16,1687331084.0
-64.10,1687331084.015625
-58.71,1687331084.03125
-55.44,1687331084.046875
-54.45,1687331084.0625
-55.68,1687331084.078125
-58.87,1687331084.09375
-63.59,1687331084.109375
-69.25,1687331084.125
-75.25,1687331084.140625
-81.04,1687331084.15625
-86.20,1687331084.171875
-90.58,1687331084.1875
-94.31,1687331084.203125
-97.72,1687331084.21875
-101.09,1687331084.234375
-104.23,1687331084.25
-106.13,1687331084.265625
-104.86,1687331084.28125
-98.06,1687331084.296875
-83.82,1687331084.3125
-61.67,1687331084.328125
-33.06,1687331084.34375
-1.04,1687331084.359375
30.75,1687331084.375
59.28,1687331084.390625
82.81,1687331084.40625
100.86,1687331084.421875
113.76,1687331084.4375
122.07,1687331084.453125
126.60,1687331084.46875
128.45,1687331084.484375
129.14,1687331084.5
130.20,1687331084.515625
132.24,1687331084.53125
134.27,1687331084.546875
133.54,1687331084.5625
126.28,1687331084.578125
109.13,1687331084.59375
80.38,1687331084.609375
40.62,1687331084.625
-7.38,1687331084.640625
-59.21,1687331084.65625
-109.54,1687331084.671875
-152.67,1687331084.6875
-183.16,1687331084.703125
-196.65,1687331084.71875
-190.64,1687331084.734375
-165.15,1687331084.75
-122.77,1687331084.765625
-68.16,1687331084.78125
-6.98,1687331084.796875
55.37,1687331084.8125
114.80,1687331084.828125
169.00,1687331084.84375
217.25,1687331084.859375
259.72,1687331084.875
296.66,1687331084.890625
327.92,1687331084.90625
352.90,1687331084.921875
371.09,1687331084.9375
382.73,1687331084.953125
389.14,1687331084.96875
392.47,1687331084.984375
394.86,1687331085.0
397.53,1687331085.015625
400.40,1687331085.03125
402.49,1687331085.046875
402.87,1687331085.0625
401.51,1687331085.078125
399.50,1687331085.09375
398.52,1687331085.109375
399.78,1687331085.125
403.20,1687331085.140625
407.00,1687331085.15625
408.14,1687331085.171875
403.37,1687331085.1875
390.34,1687331085.203125
368.40,1687331085.21875
338.74,1687331085.234375
303.81,1687331085.25
266.42,1687331085.265625
228.85,1687331085.28125
192.26,1687331085.296875
156.84,1687331085.3125
122.23,1687331085.328125
88.21,1687331085.34375
55.05,1687331085.359375
23.50,1687331085.375
-5.67,1687331085.390625
-32.12,1687331085.40625
-56.23,1687331085.421875
-78.88,1687331085.4375
-101.05,1687331085.453125
-123.55,1687331085.46875
-146.91,1687331085.484375
-171.51,1687331085.5
-197.65,1687331085.515625
-225.36,1687331085.53125
-253.86,1687331085.546875
-281.16,1687331085.5625
-304.05,1687331085.578125
-318.92,1687331085.59375
-322.91,1687331085.609375
-314.94,1687331085.625
-296.06,1687331085.640625
-268.98,1687331085.65625
-237.14,1687331085.671875
-203.96,1687331085.6875
-172.56,1687331085.703125
-145.89,1687331085.71875
-126.67,1687331085.734375
-116.93,1687331085.75
-117.17,1687331085.765625
-125.87,1687331085.78125
-139.68,1687331085.796875
-154.58,1687331085.8125
-167.20,1687331085.828125
-175.77,1687331085.84375
-180.10,1687331085.859375
-180.96,1687331085.875
-179.32,1687331085.890625
-176.03,1687331085.90625
-171.88,1687331085.921875
-167.71,1687331085.9375
-164.35,1687331085.953125
-162.20,1687331085.96875
-160.96,1687331085.984375
-159.77,1687331086.0
-157.71,1687331086.015625
-154.44,1687331086.03125
-150.38,1687331086.046875
-146.36,1687331086.0625
-142.93,1687331086.078125
-140.07,1687331086.09375
-137.22,1687331086.109375
-133.93,1687331086.125
-130.39,1687331086.140625
-127.55,1687331086.15625
-126.70,1687331086.171875
-128.90,1687331086.1875
-134.47,1687331086.203125
-142.86,1687331086.21875
-152.83,1687331086.234375
-162.71,1687331086.25
-170.83,1687331086.265625
-175.83,1687331086.28125
-176.76,1687331086.296875
-173.39,1687331086.3125
-166.14,1687331086.328125
-156.21,1687331086.34375
-145.30,1687331086.359375
-135.39,1687331086.375
-128.34,1687331086.390625
-125.55,1687331086.40625
-127.77,1687331086.421875
-134.89,1687331086.4375
-145.94,1687331086.453125
-159.14,1687331086.46875
-171.97,1687331086.484375
-181.46,1687331086.5
-184.51,1687331086.515625
-178.52,1687331086.53125
-161.95,1687331086.546875
-134.83,1687331086.5625
-98.87,1687331086.578125
-56.91,1687331086.59375
-11.95,1687331086.609375
33.77,1687331086.625
79.08,1687331086.640625
123.34,1687331086.65625
165.44,1687331086.671875
203.06,1687331086.6875
232.79,1687331086.703125
251.20,1687331086.71875
256.13,1687331086.734375
247.49,1687331086.75
226.97,1687331086.765625
196.74,1687331086.78125
158.34,1687331086.796875
112.41,1687331086.8125
59.74,1687331086.828125
2.71,1687331086.84375
-54.06,1687331086.859375
-104.66,1687331086.875
-144.04,1687331086.890625
-170.17,1687331086.90625
-184.80,1687331086.921875
-192.42,1687331086.9375
-198.08,1687331086.953125
-205.44,1687331086.96875
-215.92,1687331086.984375
-229.03,1687331087.0
-243.29,1687331087.015625
-256.82,1687331087.03125
-267.45,1687331087.046875
-272.59,1687331087.0625
-269.49,1687331087.078125
-256.00,1687331087.09375
-231.57,1687331087.109375
-197.61,1687331087.125
-156.94,1687331087.140625
-112.69,1687331087.15625
-67.25,1687331087.171875
-21.87,1687331087.1875
22.93,1687331087.203125
66.66,1687331087.21875
108.28,1687331087.234375
146.12,1687331087.25
178.16,1687331087.265625
202.51,1687331087.28125
217.78,1687331087.296875
223.30,1687331087.3125
219.11,1687331087.328125
206.06,1687331087.34375
185.71,1687331087.359375
160.25,1687331087.375
132.08,1687331087.390625
103.59,1687331087.40625
77.00,1687331087.421875
54.54,1687331087.4375
38.67,1687331087.453125
32.14,1687331087.46875
37.50,1687331087.484375
56.10,1687331087.5
87.04,1687331087.515625
126.76,1687331087.53125
169.73,1687331087.546875
210.08,1687331087.5625
243.44,1687331087.578125
268.05,1687331087.59375
284.70,1687331087.609375
295.44,1687331087.625
301.88,1687331087.640625
304.06,1687331087.65625
300.44,1687331087.671875
288.93,1687331087.6875
268.15,1687331087.703125
238.32,1687331087.71875
201.21,1687331087.734375
159.38,1687331087.75
115.32,1687331087.765625
70.81,1687331087.78125
27.13,1687331087.796875
-14.43,1687331087.8125
-52.00,1687331087.828125
-83.08,1687331087.84375
-105.10,1687331087.859375
-116.37,1687331087.875
-117.03,1687331087.890625
-109.21,1687331087.90625
-96.41,1687331087.921875
-82.16,1687331087.9375
-68.72,1687331087.953125
-56.41,1687331087.96875
-43.95,1687331087.984375
-29.39,1687331088.0
-11.38,1687331088.015625
10.05,1687331088.03125
33.18,1687331088.046875
54.96,1687331088.0625
71.63,1687331088.078125
79.59,1687331088.09375
76.28,1687331088.109375
61.11,1687331088.125
36.07,1687331088.140625
5.71,1687331088.15625
-23.85,1687331088.171875
-46.72,1687331088.1875
-59.11,1687331088.203125
-60.60,1687331088.21875
-54.12,1687331088.234375
-44.51,1687331088.25
-36.66,1687331088.265625
-33.76,1687331088.28125
-36.64,1687331088.296875
-44.11,1687331088.3125
-53.93,1687331088.328125
-63.83,1687331088.34375
-72.21,1687331088.359375
-78.24,1687331088.375
-81.69,1687331088.390625
-82.64,1687331088.40625
-81.34,1687331088.421875
-78.10,1687331088.4375
-73.38,1687331088.453125
-67.86,1687331088.46875
-62.41,1687331088.484375
-58.05,1687331088.5
-55.78,1687331088.515625
-56.24,1687331088.53125
-59.22,1687331088.546875
-63.26,1687331088.5625
-65.68,1687331088.578125
-63.03,1687331088.59375
-52.21,1687331088.609375
-31.59,1687331088.625
-1.67,1687331088.640625
34.96,1687331088.65625
74.34,1687331088.671875
112.23,1687331088.6875
144.95,1687331088.703125
169.92,1687331088.71875
185.84,1687331088.734375
192.54,1687331088.75
190.71,1687331088.765625
181.58,1687331088.78125
166.63,1687331088.796875
147.28,1687331088.8125
124.88,1687331088.828125
100.72,1687331088.84375
76.25,1687331088.859375
53.14,1687331088.875
33.15,1687331088.890625
17.70,1687331088.90625
7.43,1687331088.921875
2.08,1687331088.9375
0.61,1687331088.953125
1.68,1687331088.96875
4.03,1687331088.984375
6.65,1687331089.0
8.82,1687331089.015625
9.98,1687331089.03125
9.70,1687331089.046875
7.71,1687331089.0625
4.02,1687331089.078125
-0.94,1687331089.09375
-6.32,1687331089.109375
-11.00,1687331089.125
-13.91,1687331089.140625
-14.36,1687331089.15625
-12.36,1687331089.171875
-8.65,1687331089.1875
-4.54,1687331089.203125
-1.40,1687331089.21875
-0.09,1687331089.234375
-0.50,1687331089.25
-1.55,1687331089.265625
-1.49,1687331089.28125
1.36,1687331089.296875
7.84,1687331089.3125
17.58,1687331089.328125
29.00,1687331089.34375
39.82,1687331089.359375
47.83,1687331089.375
51.50,1687331089.390625
50.29,1687331089.40625
44.61,1687331089.421875
35.37,1687331089.4375
23.76,1687331089.453125
10.94,1687331089.46875
-1.88,1687331089.484375
-13.42,1687331089.5
-22.25,1687331089.515625
-26.97,1687331089.53125
-26.34,1687331089.546875
-19.69,1687331089.5625
-7.01,1687331089.578125
10.93,1687331089.59375
32.74,1687331089.609375
56.67,1687331089.625
80.90,1687331089.640625
103.71,1687331089.65625
123.60,1687331089.671875
139.42,1687331089.6875
150.42,1687331089.703125
156.41,1687331089.71875
157.79,1687331089.734375
155.45,1687331089.75
150.37,1687331089.765625
143.24,1687331089.78125
134.27,1687331089.796875
123.19,1687331089.8125
109.64,1687331089.828125
93.52,1687331089.84375
75.26,1687331089.859375
55.65,1687331089.875
35.65,1687331089.890625
16.00,1687331089.90625
-2.82,1687331089.921875
-20.54,1687331089.9375
-36.89,1687331089.953125
-51.44,1687331089.96875
-63.61,1687331089.984375
-72.77,1687331090.0
-78.37,1687331090.015625
-80.06,1687331090.03125
-77.77,1687331090.046875
-71.76,1687331090.0625
-62.55,1687331090.078125
-50.97,1687331090.09375
-38.10,1687331090.109375
-25.13,1687331090.125
-13.29,1687331090.140625
-3.59,1687331090.15625
3.37,1687331090.171875
7.53,1687331090.1875
9.26,1687331090.203125
9.12,1687331090.21875
7.53,1687331090.234375
4.65,1687331090.25
0.46,1687331090.265625
-5.01,1687331090.28125
-11.37,1687331090.296875
-17.86,1687331090.3125
-23.36,1687331090.328125
-26.85,1687331090.34375
-27.58,1687331090.359375
-25.19,1687331090.375
-19.62,1687331090.390625
-10.94,1687331090.40625
0.76,1687331090.421875
15.20,1687331090.4375
31.76,1687331090.453125
49.24,1687331090.46875
65.86,1687331090.484375
79.60,1687331090.5
88.63,1687331090.515625
91.86,1687331090.53125
89.30,1687331090.546875
82.08,1687331090.5625
72.11,1687331090.578125
61.42,1687331090.59375
51.54,1687331090.609375
43.01,1687331090.625
35.23,1687331090.640625
26.85,1687331090.65625
16.36,1687331090.671875
2.87,1687331090.6875
-13.48,1687331090.703125
-31.44,1687331090.71875
-49.04,1687331090.734375
-64.30,1687331090.75
-75.96,1687331090.765625
-83.94,1687331090.78125
-89.19,1687331090.796875
-93.21,1687331090.8125
-97.42,1687331090.828125
-102.66,1687331090.84375
-109.10,1687331090.859375
-116.48,1687331090.875
-124.29,1687331090.890625
-131.99,1687331090.90625
-138.95,1687331090.921875
-144.36,1687331090.9375
-147.36,1687331090.953125
-147.18,1687331090.96875
-143.49,1687331090.984375
-136.52,1687331091.0
-127.01,1687331091.015625
-115.91,1687331091.03125
-104.03,1687331091.046875
-91.76,1687331091.0625
-79.15,1687331091.078125
-66.10,1687331091.09375
-52.59,1687331091.109375
-38.81,1687331091.125
-25.12,1687331091.140625
-11.94,1687331091.15625
0.31,1687331091.171875
11.27,1687331091.1875
20.65,1687331091.203125
28.25,1687331091.21875
33.96,1687331091.234375
37.82,1687331091.25
39.95,1687331091.265625
40.46,1687331091.28125
39.43,1687331091.296875
36.88,1687331091.3125
32.98,1687331091.328125
28.05,1687331091.34375
22.62,1687331091.359375
17.30,1687331091.375
12.67,1687331091.390625
9.20,1687331091.40625
7.34,1687331091.421875
7.60,1687331091.4375
10.52,1687331091.453125
16.37,1687331091.46875
24.75,1687331091.484375
34.37,1687331091.5
43.33,1687331091.515625
49.65,1687331091.53125
51.89,1687331091.546875
49.62,1687331091.5625
43.23,1687331091.578125
33.57,1687331091.59375
21.46,1687331091.609375
7.61,1687331091.625
-7.23,1687331091.640625
-22.06,1687331091.65625
-35.55,1687331091.671875
-46.34,1687331091.6875
-53.60,1687331091.703125
-57.28,1687331091.71875
-58.20,1687331091.734375
-57.48,1687331091.75
-56.01,1687331091.765625
-54.09,1687331091.78125
-51.35,1687331091.796875
-47.19,1687331091.8125
-41.26,1687331091.828125
-33.88,1687331091.84375
-26.09,1687331091.859375
-19.43,1687331091.875
-15.31,1687331091.890625
-14.60,1687331091.90625
-17.39,1687331091.921875
-23.04,1687331091.9375
-30.55,1687331091.953125
-38.97,1687331091.96875
-47.63,1687331091.984375
-56.23,1687331092.0
-64.64,1687331092.015625
-72.71,1687331092.03125
-80.31,1687331092.046875
-87.31,1687331092.0625
-93.62,1687331092.078125
-98.99,1687331092.09375
-102.78,1687331092.109375
-103.77,1687331092.125
-100.53,1687331092.140625
-92.03,1687331092.15625
-78.36,1687331092.171875
-61.05,1687331092.1875
-42.69,1687331092.203125
-26.02,1687331092.21875
-12.92,1687331092.234375
-3.84,1687331092.25
2.03,1687331092.265625
6.10,1687331092.28125
9.51,1687331092.296875
12.68,1687331092.3125
15.29,1687331092.328125
16.66,1687331092.34375
16.24,1687331092.359375
13.88,1687331092.375
9.83,1687331092.390625
4.63,1687331092.40625
-1.12,1687331092.421875
-6.86,1687331092.4375
-12.17,1687331092.453125
-16.74,1687331092.46875
-20.40,1687331092.484375
-23.04,1687331092.5
-24.53,1687331092.515625
-24.81,1687331092.53125
-23.80,1687331092.546875
-21.58,1687331092.5625
-18.50,1687331092.578125
-15.23,1687331092.59375
-12.60,1687331092.609375
-11.36,1687331092.625
-11.86,1687331092.640625
-13.91,1687331092.65625
-16.98,1687331092.671875
-20.40,1687331092.6875
-23.61,1687331092.703125
-26.23,1687331092.71875
-27.78,1687331092.734375
-27.38,1687331092.75
-23.82,1687331092.765625
-16.07,1687331092.78125
-3.93,1687331092.796875
11.52,1687331092.8125
28.20,1687331092.828125
43.83,1687331092.84375
56.66,1687331092.859375
65.78,1687331092.875
70.83,1687331092.890625
71.27,1687331092.90625
66.08,1687331092.921875
54.08,1687331092.9375
34.75,1687331092.953125
9.05,1687331092.96875
-20.39,1687331092.984375
-49.91,1687331093.0
-75.88,1687331093.015625
-95.71,1687331093.03125
-108.27,1687331093.046875
-113.69,1687331093.0625
-112.91,1687331093.078125
-107.22,1687331093.09375
-98.06,1687331093.109375
-86.92,1687331093.125
-75.23,1687331093.140625
-63.88,1687331093.15625
-53.17,1687331093.171875
-42.68,1687331093.1875
-31.62,1687331093.203125
-19.49,1687331093.21875
-6.53,1687331093.234375
6.07,1687331093.25
16.58,1687331093.265625
23.29,1687331093.28125
25.06,1687331093.296875
21.54,1687331093.3125
13.02,1687331093.328125
0.14,1687331093.34375
-16.32,1687331093.359375
-35.35,1687331093.375
-55.53,1687331093.390625
-75.12,1687331093.40625
-92.47,1687331093.421875
-106.78,1687331093.4375
-118.39,1687331093.453125
-128.60,1687331093.46875
-138.86,1687331093.484375
-149.77,1687331093.5
-160.65,1687331093.515625
-169.63,1687331093.53125
-174.47,1687331093.546875
-173.46,1687331093.5625
-165.93,1687331093.578125
-152.34,1687331093.59375
-134.00,1687331093.609375
-112.64,1687331093.625
-90.27,1687331093.640625
-68.85,1687331093.65625
-50.00,1687331093.671875
-34.55,1687331093.6875
-22.19,1687331093.703125
-11.60,1687331093.71875
-0.99,1687331093.734375
11.08,1687331093.75
25.32,1687331093.765625
41.41,1687331093.78125
58.34,1687331093.796875
74.78,1687331093.8125
89.32,1687331093.828125
100.66,1687331093.84375
107.79,1687331093.859375
110.16,1687331093.875
107.93,1687331093.890625
102.00,1687331093.90625
93.80,1687331093.921875
84.83,1687331093.9375
76.26,1687331093.953125
68.61,1687331093.96875
61.85,1687331093.984375
55.75,1687331094.0
50.14,1687331094.015625
45.06,1687331094.03125
40.77,1687331094.046875
37.57,1687331094.0625
35.65,1687331094.078125
35.01,1687331094.09375
35.47,1687331094.109375
36.74,1687331094.125
38.45,1687331094.140625
40.24,1687331094.15625
41.73,1687331094.171875
42.54,1687331094.1875
42.23,1687331094.203125
40.43,1687331094.21875
36.97,1687331094.234375
32.07,1687331094.25
26.42,1687331094.265625
21.16,1687331094.28125
17.50,1687331094.296875
16.43,1687331094.3125
18.35,1687331094.328125
22.95,1687331094.34375
29.32,1687331094.359375
36.26,1687331094.375
42.66,1687331094.390625
47.77,1687331094.40625
51.33,1687331094.421875
53.46,1687331094.4375
54.45,1687331094.453125
54.57,1687331094.46875
53.94,1687331094.484375
52.70,1687331094.5
51.08,1687331094.515625
49.52,1687331094.53125
48.49,1687331094.546875
48.39,1687331094.5625
49.24,1687331094.578125
50.73,1687331094.59375
52.38,1687331094.609375
53.74,1687331094.625
54.65,1687331094.640625
55.28,1687331094.65625
55.96,1687331094.671875
57.04,1687331094.6875
58.67,1687331094.703125
60.80,1687331094.71875
63.15,1687331094.734375
65.31,1687331094.75
66.81,1687331094.765625
67.21,1687331094.78125
66.23,1687331094.796875
63.79,1687331094.8125
60.11,1687331094.828125
55.50,1687331094.84375
50.29,1687331094.859375
44.65,1687331094.875
38.55,1687331094.890625
31.97,1687331094.90625
25.07,1687331094.921875
18.47,1687331094.9375
13.23,1687331094.953125
10.62,1687331094.96875
11.63,1687331094.984375
16.55,1687331095.0
24.73,1687331095.015625
34.75,1687331095.03125
44.86,1687331095.046875
53.45,1687331095.0625
59.54,1687331095.078125
62.86,1687331095.09375
63.73,1687331095.109375
62.74,1687331095.125
60.46,1687331095.140625
57.23,1687331095.15625
53.20,1687331095.171875
48.37,1687331095.1875
42.82,1687331095.203125
36.76,1687331095.21875
30.50,1687331095.234375
24.46,1687331095.25
18.97,1687331095.265625
14.19,1687331095.28125
10.02,1687331095.296875
6.16,1687331095.3125
2.22,1687331095.328125
-2.01,1687331095.34375
-6.42,1687331095.359375
-10.57,1687331095.375
-13.87,1687331095.390625
-16.00,1687331095.40625
-17.12,1687331095.421875
-18.00,1687331095.4375
-19.69,1687331095.453125
-23.11,1687331095.46875
-28.64,1687331095.484375
-36.12,1687331095.5
-45.04,1687331095.515625
-55.00,1687331095.53125
-65.92,1687331095.546875
-78.11,1687331095.5625
-91.90,1687331095.578125
-107.44,1687331095.59375
-124.44,1687331095.609375
-142.13,1687331095.625
-159.27,1687331095.640625
-174.29,1687331095.65625
-185.40,1687331095.671875
-190.96,1687331095.6875
-189.90,1687331095.703125
-182.06,1687331095.71875
-168.31,1687331095.734375
-150.30,1687331095.75
-129.91,1687331095.765625
-108.75,1687331095.78125
-87.89,1687331095.796875
-67.84,1687331095.8125
-48.89,1687331095.828125
-31.40,1687331095.84375
-15.84,1687331095.859375
-2.66,1687331095.875
7.98,1687331095.890625
16.37,1687331095.90625
23.17,1687331095.921875
29.06,1687331095.9375
34.46,1687331095.953125
39.36,1687331095.96875
43.33,1687331095.984375
45.86,1687331096.0
46.63,1687331096.015625
45.77,1687331096.03125
43.86,1687331096.046875
41.79,1687331096.0625
40.48,1687331096.078125
40.68,1687331096.09375
42.75,1687331096.109375
46.49,1687331096.125
51.23,1687331096.140625
55.91,1687331096.15625
59.44,1687331096.171875
61.06,1687331096.1875
60.61,1687331096.203125
58.49,1687331096.21875
55.37,1687331096.234375
51.78,1687331096.25
47.73,1687331096.265625
42.72,1687331096.28125
36.07,1687331096.296875
27.38,1687331096.3125
16.96,1687331096.328125
5.96,1687331096.34375
-3.83,1687331096.359375
-10.39,1687331096.375
-11.98,1687331096.390625
-7.51,1687331096.40625
3.20,1687331096.421875
19.30,1687331096.4375
38.93,1687331096.453125
59.47,1687331096.46875
77.91,1687331096.484375
91.32,1687331096.5
97.42,1687331096.515625
95.04,1687331096.53125
84.32,1687331096.546875
66.69,1687331096.5625
44.53,1687331096.578125
20.60,1687331096.59375
-2.49,1687331096.609375
-22.71,1687331096.625
-38.92,1687331096.640625
-50.85,1687331096.65625
-58.93,1687331096.671875
-63.92,1687331096.6875
-66.57,1687331096.703125
-67.31,1687331096.71875
-66.32,1687331096.734375
-63.65,1687331096.75
-59.43,1687331096.765625
-54.08,1687331096.78125
-48.24,1687331096.796875
-42.70,1687331096.8125
-38.18,1687331096.828125
-35.21,1687331096.84375
-34.05,1687331096.859375
-34.72,1687331096.875
-36.99,1687331096.890625
-40.41,1687331096.90625
-44.25,1687331096.921875
-47.64,1687331096.9375
-49.75,1687331096.953125
-50.12,1687331096.96875
-48.98,1687331096.984375
-47.22,1687331097.0
-46.14,1687331097.015625
-46.86,1687331097.03125
-49.66,1687331097.046875
-53.69,1687331097.0625
-57.04,1687331097.078125
-57.38,1687331097.09375
-52.74,1687331097.109375
-42.19,1687331097.125
-26.12,1687331097.140625
-5.99,1687331097.15625
16.19,1687331097.171875
38.47,1687331097.1875
59.32,1687331097.203125
77.84,1687331097.21875
93.69,1687331097.234375
106.94,1687331097.25
117.91,1687331097.265625
126.96,1687331097.28125
134.39,1687331097.296875
140.35,1687331097.3125
144.88,1687331097.328125
147.97,1687331097.34375
149.58,1687331097.359375
149.70,1687331097.375
148.35,1687331097.390625
145.63,1687331097.40625
141.76,1687331097.421875
137.12,1687331097.4375
132.17,1687331097.453125
127.34,1687331097.46875
122.85,1687331097.484375
118.61,1687331097.5
114.25,1687331097.515625
109.34,1687331097.53125
103.50,1687331097.546875
96.48,1687331097.5625
88.19,1687331097.578125
78.62,1687331097.59375
67.87,1687331097.609375
56.23,1687331097.625
44.13,1687331097.640625
32.06,1687331097.65625
20.17,1687331097.671875
8.13,1687331097.6875
-5.02,1687331097.703125
-20.48,1687331097.71875
-39.18,1687331097.734375
-61.22,1687331097.75
-85.57,1687331097.765625
-110.22,1687331097.78125
-132.61,1687331097.796875
-150.27,1687331097.8125
-161.34,1687331097.828125
-164.90,1687331097.84375
-161.01,1687331097.859375
-150.68,1687331097.875
-135.55,1687331097.890625
-117.65,1687331097.90625
-98.95,1687331097.921875
-80.95,1687331097.9375
-64.46,1687331097.953125
-49.54,1687331097.96875
-35.85,1687331097.984375
-23.06,1687331098.0
-11.19,1687331098.015625
-0.65,1687331098.03125
7.98,1687331098.046875
14.40,1687331098.0625
18.87,1687331098.078125
22.17,1687331098.09375
25.34,1687331098.109375
29.26,1687331098.125
34.34,1687331098.140625
40.52,1687331098.15625
47.48,1687331098.171875
54.91,1687331098.1875
62.70,1687331098.203125
70.89,1687331098.21875
79.45,1687331098.234375
88.07,1687331098.25
96.13,1687331098.265625
102.88,1687331098.28125
107.66,1687331098.296875
110.18,1687331098.3125
110.55,1687331098.328125
109.15,1687331098.34375
106.37,1687331098.359375
102.37,1687331098.375
97.06,1687331098.390625
90.20,1687331098.40625
81.71,1687331098.421875
71.81,1687331098.4375
61.02,1687331098.453125
50.02,1687331098.46875
39.25,1687331098.484375
28.79,1687331098.5
18.28,1687331098.515625
7.15,1687331098.53125
-4.91,1687331098.546875
-17.64,1687331098.5625
-30.03,1687331098.578125
-40.51,1687331098.59375
-47.44,1687331098.609375
-49.74,1687331098.625
-47.29,1687331098.640625
-40.98,1687331098.65625
-32.41,1687331098.671875
-23.32,1687331098.6875
-15.11,1687331098.703125
-8.69,1687331098.71875
-4.47,1687331098.734375
-2.70,1687331098.75
-3.50,1687331098.765625
-6.88,1687331098.78125
-12.51,1687331098.796875
-19.49,1687331098.8125
-26.45,1687331098.828125
-31.84,1687331098.84375
-34.36,1687331098.859375
-33.38,1687331098.875
-28.99,1687331098.890625
-21.90,1687331098.90625
-13.02,1687331098.921875
-3.17,1687331098.9375
7.06,1687331098.953125
17.28,1687331098.96875
27.10,1687331098.984375
36.09,1687331099.0
43.75,1687331099.015625
49.66,1687331099.03125
53.63,1687331099.046875
55.71,1687331099.0625
56.24,1687331099.078125
55.63,1687331099.09375
54.25,1687331099.109375
52.18,1687331099.125
49.27,1687331099.140625
45.20,1687331099.15625
39.63,1687331099.171875
32.44,1687331099.1875
23.74,1687331099.203125
13.79,1687331099.21875
2.76,1687331099.234375
-9.35,1687331099.25
-22.79,1687331099.265625
-37.83,1687331099.28125
-54.53,1687331099.296875
-72.37,1687331099.3125
-90.17,1687331099.328125
-106.10,1687331099.34375
-118.06,1687331099.359375
-124.16,1687331099.375
-123.16,1687331099.390625
-114.85,1687331099.40625
-100.08,1687331099.421875
-80.49,1687331099.4375
-58.12,1687331099.453125
-34.92,1687331099.46875
-12.45,1687331099.484375
8.20,1687331099.5
26.19,1687331099.515625
40.85,1687331099.53125
51.58,1687331099.546875
58.06,1687331099.5625
60.41,1687331099.578125
59.31,1687331099.59375
55.90,1687331099.609375
51.35,1687331099.625
46.50,1687331099.640625
41.50,1687331099.65625
35.91,1687331099.671875
29.05,1687331099.6875
20.43,1687331099.703125
10.30,1687331099.71875
-0.38,1687331099.734375
-10.21,1687331099.75
-17.81,1687331099.765625
-22.39,1687331099.78125
-23.99,1687331099.796875
-23.36,1687331099.8125
-21.63,1687331099.828125
-19.87,1687331099.84375
-18.77,1687331099.859375
-18.57,1687331099.875
-19.18,1687331099.890625
-20.41,1687331099.90625
-22.10,1687331099.921875
-24.19,1687331099.9375
-26.66,1687331099.953125
-29.41,1687331099.96875
-32.23,1687331099.984375
-34.77,1687331100.0
-36.71,1687331100.015625
-37.85,1687331100.03125
-38.22,1687331100.046875
-38.07,1687331100.0625
-37.88,1687331100.078125
-38.20,1687331100.09375
-39.53,1687331100.109375
-42.15,1687331100.125
-45.89,1687331100.140625
-50.09,1687331100.15625
-53.60,1687331100.171875
-55.01,1687331100.1875
-53.00,1687331100.203125
-46.72,1687331100.21875
-36.06,1687331100.234375
-21.68,1687331100.25
-4.93,1687331100.265625
12.58,1687331100.28125
29.38,1687331100.296875
44.47,1687331100.3125
57.49,1687331100.328125
68.48,1687331100.34375
77.68,1687331100.359375
85.18,1687331100.375
90.82,1687331100.390625
94.35,1687331100.40625
95.69,1687331100.421875
95.22,1687331100.4375
93.78,1687331100.453125
92.49,1687331100.46875
92.37,1687331100.484375
94.01,1687331100.5
97.39,1687331100.515625
101.92,1687331100.53125
106.57,1687331100.546875
110.23,1687331100.5625
111.92,1687331100.578125
111.16,1687331100.59375
108.03,1687331100.609375
103.22,1687331100.625
97.71,1687331100.640625
92.32,1687331100.65625
87.37,1687331100.671875
82.50,1687331100.6875
76.82,1687331100.703125
69.30,1687331100.71875
59.22,1687331100.734375
46.52,1687331100.75
31.79,1687331100.765625
16.12,1687331100.78125
0.80,1687331100.796875
-13.09,1687331100.8125
-24.95,1687331100.828125
-34.81,1687331100.84375
-43.36,1687331100.859375
-51.82,1687331100.875
-61.67,1687331100.890625
-74.19,1687331100.90625
-90.03,1687331100.921875
-108.70,1687331100.9375
-128.47,1687331100.953125
-146.52,1687331100.96875
-159.59,1687331100.984375
-164.91,1687331101.0
-161.01,1687331101.015625
-148.24,1687331101.03125
-128.69,1687331101.046875
-105.56,1687331101.0625
-82.23,1687331101.078125
-61.45,1687331101.09375
-44.76,1687331101.109375
-32.47,1687331101.125
-23.97,1687331101.140625
-18.22,1687331101.15625
-14.16,1687331101.171875
-10.98,1687331101.1875
-8.08,1687331101.203125
-5.02,1687331101.21875
-1.45,1687331101.234375
2.87,1687331101.25
8.05,1687331101.265625
14.01,1687331101.28125
20.53,1687331101.296875
27.39,1687331101.3125
34.41,1687331101.328125
41.42,1687331101.34375
48.25,1687331101.359375
54.61,1687331101.375
60.16,1687331101.390625
64.63,1687331101.40625
67.96,1687331101.421875
70.46,1687331101.4375
72.59,1687331101.453125
74.82,1687331101.46875
77.34,1687331101.484375
79.91,1687331101.5
81.86,1687331101.515625
82.20,1687331101.53125
79.95,1687331101.546875
74.38,1687331101.5625
65.36,1687331101.578125
53.50,1687331101.59375
40.05,1687331101.609375
26.63,1687331101.625
14.63,1687331101.640625
4.75,1687331101.65625
-3.29,1687331101.671875
-10.59,1687331101.6875
-18.49,1687331101.703125
-27.82,1687331101.71875
-38.26,1687331101.734375
-48.29,1687331101.75
-55.62,1687331101.765625
-58.07,1687331101.78125
-54.39,1687331101.796875
-44.83,1687331101.8125
-31.01,1687331101.828125
-15.39,1687331101.84375
-0.42,1687331101.859375
12.17,1687331101.875
21.74,1687331101.890625
28.67,1687331101.90625
33.85,1687331101.921875
38.12,1687331101.9375
41.95,1687331101.953125
45.29,1687331101.96875
47.78,1687331101.984375
48.96,1687331102.0
48.52,1687331102.015625
46.32,1687331102.03125
42.37,1687331102.046875
36.79,1687331102.0625
29.85,1687331102.078125
21.93,1687331102.09375
13.55,1687331102.109375
5.11,1687331102.125
-3.37,1687331102.140625
-12.21,1687331102.15625
-21.94,1687331102.171875
-32.79,1687331102.1875
-44.37,1687331102.203125
-55.59,1687331102.21875
-65.04,1687331102.234375
-71.60,1687331102.25
-74.93,1687331102.265625
-75.57,1687331102.28125
-74.54,1687331102.296875
-72.80,1687331102.3125
-70.85,1687331102.328125
-68.64,1687331102.34375
-65.89,1687331102.359375
-62.49,1687331102.375
-58.74,1687331102.390625
-55.23,1687331102.40625
-52.60,1687331102.421875
-51.25,1687331102.4375
-51.26,1687331102.453125
-52.42,1687331102.46875
-54.42,1687331102.484375
-56.78,1687331102.5
-58.90,1687331102.515625
-59.97,1687331102.53125
-59.07,1687331102.546875
-55.41,1687331102.5625
-48.50,1687331102.578125
-38.41,1687331102.59375
-25.60,1687331102.609375
-10.91,1687331102.625
4.78,1687331102.640625
20.48,1687331102.65625
35.23,1687331102.671875
48.10,1687331102.6875
58.37,1687331102.703125
65.71,1687331102.71875
70.31,1687331102.734375
72.77,1687331102.75
73.86,1687331102.765625
74.27,1687331102.78125
74.39,1687331102.796875
74.36,1687331102.8125
74.04,1687331102.828125
73.17,1687331102.84375
71.30,1687331102.859375
67.88,1687331102.875
62.35,1687331102.890625
54.42,1687331102.90625
44.27,1687331102.921875
32.63,1687331102.9375
20.67,1687331102.953125
9.59,1687331102.96875
0.26,1687331102.984375
-7.05,1687331103.0
-12.62,1687331103.015625
-17.14,1687331103.03125
-21.28,1687331103.046875
-25.56,1687331103.0625
-30.20,1687331103.078125
-35.25,1687331103.09375
-40.74,1687331103.109375
-46.84,1687331103.125
-53.81,1687331103.140625
-61.75,1687331103.15625
-70.38,1687331103.171875
-78.90,1687331103.1875
-86.29,1687331103.203125
-91.65,1687331103.21875
-94.71,1687331103.234375
-95.91,1687331103.25
-96.12,1687331103.265625
-96.09,1687331103.28125
-95.89,1687331103.296875
-94.83,1687331103.3125
-91.83,1687331103.328125
-85.97,1687331103.34375
-77.12,1687331103.359375
-65.97,1687331103.375
-53.74,1687331103.390625
-41.58,1687331103.40625
-30.21,1687331103.421875
-19.83,1687331103.4375
-10.34,1687331103.453125
-1.74,1687331103.46875
5.73,1687331103.484375
11.64,1687331103.5
15.69,1687331103.515625
17.96,1687331103.53125
19.03,1687331103.546875
19.72,1687331103.5625
20.78,1687331103.578125
22.56,1687331103.59375
24.87,1687331103.609375
27.22,1687331103.625
29.03,1687331103.640625
29.96,1687331103.65625
30.08,1687331103.671875
29.79,1687331103.6875
29.53,1687331103.703125
29.62,1687331103.71875
30.06,1687331103.734375
30.55,1687331103.75
30.69,1687331103.765625
30.08,1687331103.78125
28.51,1687331103.796875
25.95,1687331103.8125
22.60,1687331103.828125
18.74,1687331103.84375
14.68,1687331103.859375
10.52,1687331103.875
6.12,1687331103.890625
1.09,1687331103.90625
-5.04,1687331103.921875
-12.49,1687331103.9375
-21.06,1687331103.953125
-30.08,1687331103.96875
-38.72,1687331103.984375
-46.29,1687331104.0
-52.39,1687331104.015625
-56.86,1687331104.03125
-59.45,1687331104.046875
-59.59,1687331104.0625
-56.40,1687331104.078125
-49.12,1687331104.09375
-37.53,1687331104.109375
-22.35,1687331104.125
-5.09,1687331104.140625
12.38,1687331104.15625
28.37,1687331104.171875
41.78,1687331104.1875
52.20,1687331104.203125
59.74,1687331104.21875
64.73,1687331104.234375
67.53,1687331104.25
68.43,1687331104.265625
67.74,1687331104.28125
65.84,1687331104.296875
63.28,1687331104.3125
60.69,1687331104.328125
58.63,1687331104.34375
57.49,1687331104.359375
57.36,1687331104.375
58.08,1687331104.390625
59.34,1687331104.40625
60.73,1687331104.421875
61.88,1687331104.4375
62.42,1687331104.453125
62.05,1687331104.46875
60.54,1687331104.484375
57.76,1687331104.5
53.71,1687331104.515625
48.50,1687331104.53125
42.29,1687331104.546875
35.31,1687331104.5625
27.83,1687331104.578125
20.23,1687331104.59375
12.96,1687331104.609375
6.43,1687331104.625
0.80,1687331104.640625
-4.08,1687331104.65625
-8.67,1687331104.671875
-13.55,1687331104.6875
-19.20,1687331104.703125
-25.76,1687331104.71875
-33.13,1687331104.734375
-41.11,1687331104.75
-49.50,1687331104.765625
-58.16,1687331104.78125
-66.84,1687331104.796875
-74.89,1687331104.8125
-81.27,1687331104.828125
-84.67,1687331104.84375
-84.01,1687331104.859375
-78.87,1687331104.875
-69.79,1687331104.890625
-58.15,1687331104.90625
-45.79,1687331104.921875
-34.48,1687331104.9375
-25.59,1687331104.953125
-19.82,1687331104.96875
-17.28,1687331104.984375
-17.46,1687331105.0
-19.41,1687331105.015625
-21.87,1687331105.03125
-23.44,1687331105.046875
-22.83,1687331105.0625
-19.20,1687331105.078125
-12.30,1687331105.09375
-2.57,1687331105.109375
8.98,1687331105.125
21.11,1687331105.140625
32.70,1687331105.15625
43.06,1687331105.171875
52.00,1687331105.1875
59.66,1687331105.203125
66.08,1687331105.21875
70.89,1687331105.234375
73.10,1687331105.25
71.26,1687331105.265625
63.93,1687331105.28125
50.36,1687331105.296875
30.93,1687331105.3125
7.25,1687331105.328125
-18.22,1687331105.34375
-42.90,1687331105.359375
-64.66,1687331105.375
-82.29,1687331105.390625
-95.43,1687331105.40625
-104.30,1687331105.421875
-109.38,1687331105.4375
-111.22,1687331105.453125
-110.50,1687331105.46875
-108.19,1687331105.484375
-105.54,1687331105.5
-103.78,1687331105.515625
-103.59,1687331105.53125
-104.63,1687331105.546875
-105.38,1687331105.5625
-103.58,1687331105.578125
-97.02,1687331105.59375
-84.44,1687331105.609375
-66.06,1687331105.625
-43.46,1687331105.640625
-19.13,1687331105.65625
4.48,1687331105.671875
25.56,1687331105.6875
43.23,1687331105.703125
57.35,1687331105.71875
68.07,1687331105.734375
75.49,1687331105.75
79.54,1687331105.765625
80.07,1687331105.78125
77.19,1687331105.796875
71.45,1687331105.8125
63.91,1687331105.828125
55.95,1687331105.84375
48.94,1687331105.859375
43.95,1687331105.875
41.50,1687331105.890625
41.51,1687331105.90625
43.37,1687331105.921875
46.12,1687331105.9375
48.74,1687331105.953125
50.37,1687331105.96875
50.36,1687331105.984375
48.26,1687331106.0
43.70,1687331106.015625
36.41,1687331106.03125
26.37,1687331106.046875
13.94,1687331106.0625
-0.07,1687331106.078125
-14.69,1687331106.09375
-29.25,1687331106.109375
-43.87,1687331106.125
-59.31,1687331106.140625
-76.54,1687331106.15625
-95.89,1687331106.171875
-116.51,1687331106.1875
-136.48,1687331106.203125
-153.54,1687331106.21875
-166.17,1687331106.234375
-174.17,1687331106.25
-178.66,1687331106.265625
-181.30,1687331106.28125
-183.35,1687331106.296875
-184.97,1687331106.3125
-185.16,1687331106.328125
-182.34,1687331106.34375
-175.06,1687331106.359375
-162.65,1687331106.375
-145.40,1687331106.390625
-124.32,1687331106.40625
-100.72,1687331106.421875
-75.82,1687331106.4375
-50.51,1687331106.453125
-25.51,1687331106.46875
-1.66,1687331106.484375
19.87,1687331106.5
37.68,1687331106.515625
50.60,1687331106.53125
58.30,1687331106.546875
61.69,1687331106.5625
62.75,1687331106.578125
63.93,1687331106.59375
67.17,1687331106.609375
73.22,1687331106.625
81.56,1687331106.640625
90.85,1687331106.65625
99.63,1687331106.671875
106.90,1687331106.6875
112.31,1687331106.703125
115.89,1687331106.71875
117.81,1687331106.734375
118.17,1687331106.75
117.06,1687331106.765625
114.65,1687331106.78125
111.24,1687331106.796875
107.14,1687331106.8125
102.51,1687331106.828125
97.28,1687331106.84375
91.20,1687331106.859375
84.02,1687331106.875
75.71,1687331106.890625
66.51,1687331106.90625
56.80,1687331106.921875
46.95,1687331106.9375
37.13,1687331106.953125
27.20,1687331106.96875
16.80,1687331106.984375
5.63,1687331107.0
-6.26,1687331107.015625
-18.27,1687331107.03125
-29.11,1687331107.046875
-37.03,1687331107.0625
-40.25,1687331107.078125
-37.44,1687331107.09375
-28.13,1687331107.109375
-12.80,1687331107.125
7.18,1687331107.140625
29.89,1687331107.15625
53.28,1687331107.171875
75.38,1687331107.1875
94.56,1687331107.203125
109.54,1687331107.21875
119.56,1687331107.234375
124.33,1687331107.25
124.04,1687331107.265625
119.37,1687331107.28125
111.43,1687331107.296875
101.56,1687331107.3125
91.24,1687331107.328125
81.83,1687331107.34375
74.46,1687331107.359375
69.86,1687331107.375
68.35,1687331107.390625
69.73,1687331107.40625
73.28,1687331107.421875
77.91,1687331107.4375
82.34,1687331107.453125
85.38,1687331107.46875
86.26,1687331107.484375
84.69,1687331107.5
80.80,1687331107.515625
74.86,1687331107.53125
67.08,1687331107.546875
57.50,1687331107.5625
46.15,1687331107.578125
33.25,1687331107.59375
19.38,1687331107.609375
5.39,1687331107.625
-7.77,1687331107.640625
-19.40,1687331107.65625
-29.18,1687331107.671875
-37.26,1687331107.6875
-44.14,1687331107.703125
-50.54,1687331107.71875
-57.10,1687331107.734375
-64.14,1687331107.75
-71.46,1687331107.765625
-78.25,1687331107.78125
-83.32,1687331107.796875
-85.46,1687331107.8125
-83.92,1687331107.828125
-78.66,1687331107.84375
-70.37,1687331107.859375
-60.25,1687331107.875
-49.51,1687331107.890625
-39.05,1687331107.90625
-29.28,1687331107.921875
-20.18,1687331107.9375
-11.60,1687331107.953125
-3.47,1687331107.96875
4.01,1687331107.984375
10.52,1687331108.0
15.73,1687331108.015625
19.61,1687331108.03125
22.50,1687331108.046875
24.98,1687331108.0625
27.63,1687331108.078125
30.67,1687331108.09375
33.83,1687331108.109375
36.34,1687331108.125
37.21,1687331108.140625
35.76,1687331108.15625
31.95,1687331108.171875
26.58,1687331108.1875
21.17,1687331108.203125
17.43,1687331108.21875
16.53,1687331108.234375
18.40,1687331108.25
21.34,1687331108.265625
22.36,1687331108.28125
18.02,1687331108.296875
5.65,1687331108.3125
-15.64,1687331108.328125
-44.44,1687331108.34375
-77.51,1687331108.359375
-110.76,1687331108.375
-140.51,1687331108.390625
-164.35,1687331108.40625
-181.51,1687331108.421875
-192.59,1687331108.4375
-199.01,1687331108.453125
-202.47,1687331108.46875
-204.49,1687331108.484375
-206.16,1687331108.5
-207.97,1687331108.515625
-209.61,1687331108.53125
-210.02,1687331108.546875
-207.49,1687331108.5625
-200.11,1687331108.578125
-186.35,1687331108.59375
-165.63,1687331108.609375
-138.59,1687331108.625
-107.09,1687331108.640625
-73.78,1687331108.65625
-41.52,1687331108.671875
-12.64,1687331108.6875
11.43,1687331108.703125
30.46,1687331108.71875
45.06,1687331108.734375
56.35,1687331108.75
65.39,1687331108.765625
72.86,1687331108.78125
79.08,1687331108.796875
84.09,1687331108.8125
87.95,1687331108.828125
90.74,1687331108.84375
92.64,1687331108.859375
93.74,1687331108.875
94.09,1687331108.890625
93.75,1687331108.90625
92.90,1687331108.921875
91.99,1687331108.9375
91.61,1687331108.953125
92.25,1687331108.96875
94.03,1687331108.984375
96.55,1687331109.0
98.89,1687331109.015625
99.89,1687331109.03125
98.52,1687331109.046875
94.19,1687331109.0625
86.99,1687331109.078125
77.51,1687331109.09375
66.71,1687331109.109375
55.49,1687331109.125
44.46,1687331109.140625
33.91,1687331109.15625
23.87,1687331109.171875
14.39,1687331109.1875
5.61,1687331109.203125
-2.16,1687331109.21875
-8.54,1687331109.234375
-13.10,1687331109.25
-15.36,1687331109.265625
-14.83,1687331109.28125
-11.09,1687331109.296875
-4.10,1687331109.3125
5.71,1687331109.328125
17.29,1687331109.34375
29.25,1687331109.359375
40.15,1687331109.375
48.98,1687331109.390625
55.34,1687331109.40625
59.41,1687331109.421875
61.71,1687331109.4375
62.81,1687331109.453125
63.12,1687331109.46875
62.96,1687331109.484375
62.51,1687331109.5
61.89,1687331109.515625
61.16,1687331109.53125
60.24,1687331109.546875
58.96,1687331109.5625
57.09,1687331109.578125
54.45,1687331109.59375
50.99,1687331109.609375
46.81,1687331109.625
42.03,1687331109.640625
36.71,1687331109.65625
30.76,1687331109.671875
23.97,1687331109.6875
16.16,1687331109.703125
7.25,1687331109.71875
-2.63,1687331109.734375
-13.18,1687331109.75
-24.10,1687331109.765625
-35.33,1687331109.78125
-47.02,1687331109.796875
-59.44,1687331109.8125
-72.57,1687331109.828125
-85.97,1687331109.84375
-98.64,1687331109.859375
-109.43,1687331109.875
-117.49,1687331109.890625
-122.72,1687331109.90625
-125.78,1687331109.921875
-127.69,1687331109.9375
-129.27,1687331109.953125
-130.62,1687331109.96875
-131.04,1687331109.984375
-129.34,1687331110.0
-124.38,1687331110.015625
-115.56,1687331110.03125
-102.99,1687331110.046875
-87.43,1687331110.0625
-69.98,1687331110.078125
-51.77,1687331110.09375
-33.82,1687331110.109375
-16.99,1687331110.125
-1.93,1687331110.140625
10.84,1687331110.15625
20.90,1687331110.171875
28.05,1687331110.1875
32.31,1687331110.203125
33.98,1687331110.21875
33.66,1687331110.234375
32.16,1687331110.25
30.34,1687331110.265625
28.92,1687331110.28125
28.29,1687331110.296875
28.43,1687331110.3125
28.98,1687331110.328125
29.37,1687331110.34375
29.10,1687331110.359375
27.84,1687331110.375
25.59,1687331110.390625
22.56,1687331110.40625
19.11,1687331110.421875
15.51,1687331110.4375
11.85,1687331110.453125
8.04,1687331110.46875
3.85,1687331110.484375
-0.89,1687331110.5
-6.16,1687331110.515625
-11.76,1687331110.53125
-17.31,1687331110.546875
-22.47,1687331110.5625
-27.06,1687331110.578125
-31.21,1687331110.59375
-35.39,1687331110.609375
-40.34,1687331110.625
-46.94,1687331110.640625
-55.97,1687331110.65625
-67.73,1687331110.671875
-81.72,1687331110.6875
-96.54,1687331110.703125
-109.90,1687331110.71875
-119.11,1687331110.734375
-121.71,1687331110.75
-116.13,1687331110.765625
-102.04,1687331110.78125
-80.59,1687331110.796875
-54.00,1687331110.8125
-25.04,1687331110.828125
3.50,1687331110.84375
29.36,1687331110.859375
50.97,1687331110.875
67.49,1687331110.890625
78.65,1687331110.90625
84.70,1687331110.921875
86.36,1687331110.9375
84.70,1687331110.953125
81.13,1687331110.96875
77.08,1687331110.984375
73.78,1687331111.0
71.90,1687331111.015625
71.47,1687331111.03125
71.86,1687331111.046875
72.16,1687331111.0625
71.48,1687331111.078125
69.34,1687331111.09375
65.73,1687331111.109375
60.97,1687331111.125
55.49,1687331111.140625
49.54,1687331111.15625
43.07,1687331111.171875
35.88,1687331111.1875
27.78,1687331111.203125
18.78,1687331111.21875
9.14,1687331111.234375
-0.66,1687331111.25
-10.15,1687331111.265625
-18.93,1687331111.28125
-26.80,1687331111.296875
-33.71,1687331111.3125
-39.72,1687331111.328125
-44.98,1687331111.34375
-49.83,1687331111.359375
-54.80,1687331111.375
-60.60,1687331111.390625
-67.92,1687331111.40625
-77.03,1687331111.421875
-87.52,1687331111.4375
-98.12,1687331111.453125
-106.88,1687331111.46875
-111.71,1687331111.484375
-110.92,1687331111.5
-103.78,1687331111.515625
-90.69,1687331111.53125
-73.02,1687331111.546875
-52.66,1687331111.5625
-31.50,1687331111.578125
-11.10,1687331111.59375
7.41,1687331111.609375
23.25,1687331111.625
35.88,1687331111.640625
44.91,1687331111.65625
50.20,1687331111.671875
51.97,1687331111.6875
50.84,1687331111.703125
47.86,1687331111.71875
44.24,1687331111.734375
41.09,1687331111.75
39.11,1687331111.765625
38.40,1687331111.78125
38.62,1687331111.796875
39.21,1687331111.8125
39.77,1687331111.828125
40.16,1687331111.84375
40.43,1687331111.859375
40.68,1687331111.875
40.84,1687331111.890625
40.62,1687331111.90625
39.62,1687331111.921875
37.48,1687331111.9375
34.05,1687331111.953125
29.41,1687331111.96875
23.82,1687331111.984375
17.61,1687331112.0
11.10,1687331112.015625
4.62,1687331112.03125
-1.53,1687331112.046875
-7.13,1687331112.0625
-12.13,1687331112.078125
-16.78,1687331112.09375
-21.67,1687331112.109375
-27.58,1687331112.125
-35.19,1687331112.140625
-44.69,1687331112.15625
-55.50,1687331112.171875
-66.16,1687331112.1875
-74.62,1687331112.203125
-78.73,1687331112.21875
-76.89,1687331112.234375
-68.51,1687331112.25
-54.19,1687331112.265625
-35.47,1687331112.28125
-14.46,1687331112.296875
6.70,1687331112.3125
26.22,1687331112.328125
42.81,1687331112.34375
55.65,1687331112.359375
64.37,1687331112.375
68.88,1687331112.390625
69.41,1687331112.40625
66.52,1687331112.421875
61.13,1687331112.4375
54.41,1687331112.453125
47.61,1687331112.46875
41.74,1687331112.484375
37.41,1687331112.5
34.68,1687331112.515625
33.23,1687331112.53125
32.56,1687331112.546875
32.23,1687331112.5625
32.01,1687331112.578125
31.81,1687331112.59375
31.59,1687331112.609375
31.18,1687331112.625
30.24,1687331112.640625
28.34,1687331112.65625
25.13,1687331112.671875
20.55,1687331112.6875
14.87,1687331112.703125
8.56,1687331112.71875
2.14,1687331112.734375
-3.99,1687331112.75
-9.73,1687331112.765625
-15.15,1687331112.78125
-20.50,1687331112.796875
-26.05,1687331112.8125
-32.03,1687331112.828125
-38.50,1687331112.84375
-45.24,1687331112.859375
-51.71,1687331112.875
-57.07,1687331112.890625
-60.31,1687331112.90625
-60.49,1687331112.921875
-57.07,1687331112.9375
-50.02,1687331112.953125
-39.80,1687331112.96875
-27.35,1687331112.984375
-13.82,1687331113.0
-0.42,1687331113.015625
11.67,1687331113.03125
21.47,1687331113.046875
28.24,1687331113.0625
31.68,1687331113.078125
31.92,1687331113.09375
29.49,1687331113.109375
25.15,1687331113.125
19.66,1687331113.140625
13.63,1687331113.15625
7.38,1687331113.171875
1.08,1687331113.1875
-5.15,1687331113.203125
-11.09,1687331113.21875
-16.34,1687331113.234375
-20.38,1687331113.25
-22.62,1687331113.265625
-22.50,1687331113.28125
-19.71,1687331113.296875
-14.17,1687331113.3125
-6.20,1687331113.328125
3.59,1687331113.34375
14.35,1687331113.359375
25.15,1687331113.375
35.21,1687331113.390625
43.97,1687331113.40625
51.13,1687331113.421875
56.62,1687331113.4375
60.39,1687331113.453125
62.31,1687331113.46875
62.09,1687331113.484375
59.37,1687331113.5
53.87,1687331113.515625
45.62,1687331113.53125
35.11,1687331113.546875
23.36,1687331113.5625
11.87,1687331113.578125
2.33,1687331113.59375
-3.66,1687331113.609375
-5.01,1687331113.625
-1.33,1687331113.640625
7.03,1687331113.65625
19.11,1687331113.671875
33.70,1687331113.6875
49.57,1687331113.703125
65.66,1687331113.71875
81.07,1687331113.734375
95.00,1687331113.75
106.71,1687331113.765625
115.54,1687331113.78125
121.09,1687331113.796875
123.37,1687331113.8125
122.95,1687331113.828125
120.84,1687331113.84375
118.43,1687331113.859375
117.16,1687331113.875
118.15,1687331113.890625
121.74,1687331113.90625
127.08,1687331113.921875
132.02,1687331113.9375
133.55,1687331113.953125
128.60,1687331113.96875
115.08,1687331113.984375
92.66,1687331114.0
62.82,1687331114.015625
28.34,1687331114.03125
-7.59,1687331114.046875
-42.24,1687331114.0625
-73.66,1687331114.078125
-100.53,1687331114.09375
-121.86,1687331114.109375
-136.82,1687331114.125
-144.93,1687331114.140625
-146.47,1687331114.15625
-142.72,1687331114.171875
-135.80,1687331114.1875
-128.09,1687331114.203125
-121.54,1687331114.21875
-117.10,1687331114.234375
-114.53,1687331114.25
-112.66,1687331114.265625
-109.85,1687331114.28125
-104.61,1687331114.296875
-96.06,1687331114.3125
-84.17,1687331114.328125
-69.83,1687331114.34375
-54.49,1687331114.359375
-39.78,1687331114.375
-27.02,1687331114.390625
-16.96,1687331114.40625
-9.72,1687331114.421875
-5.00,1687331114.4375
-2.36,1687331114.453125
-1.45,1687331114.46875
-2.01,1687331114.484375
-3.80,1687331114.5
-6.41,1687331114.515625
-9.25,1687331114.53125
-11.69,1687331114.546875
-13.24,1687331114.5625
-13.73,1687331114.578125
-13.33,1687331114.59375
-12.42,1687331114.609375
-11.37,1687331114.625
-10.37,1687331114.640625
-9.39,1687331114.65625
-8.25,1687331114.671875
-6.83,1687331114.6875
-5.24,1687331114.703125
-3.80,1687331114.71875
-2.95,1687331114.734375
-3.05,1687331114.75
-4.23,1687331114.765625
-6.38,1687331114.78125
-9.20,1687331114.796875
-12.38,1687331114.8125
-15.66,1687331114.828125
-19.03,1687331114.84375
-22.64,1687331114.859375
-26.81,1687331114.875
-31.82,1687331114.890625
-37.74,1687331114.90625
-44.22,1687331114.921875
-50.49,1687331114.9375
-55.39,1687331114.953125
-57.76,1687331114.96875
-56.68,1687331114.984375
-51.79,1687331115.0
-43.43,1687331115.015625
-32.46,1687331115.03125
-20.12,1687331115.046875
-7.65,1687331115.0625
3.90,1687331115.078125
13.88,1687331115.09375
22.04,1687331115.109375
28.44,1687331115.125
33.30,1687331115.140625
36.89,1687331115.15625
39.40,1687331115.171875
40.95,1687331115.1875
41.63,1687331115.203125
41.54,1687331115.21875
40.76,1687331115.234375
39.39,1687331115.25
37.52,1687331115.265625
35.25,1687331115.28125
32.79,1687331115.296875
30.41,1687331115.3125
28.44,1687331115.328125
27.12,1687331115.34375
26.45,1687331115.359375
26.17,1687331115.375
25.79,1687331115.390625
24.81,1687331115.40625
22.80,1687331115.421875
19.60,1687331115.4375
15.26,1687331115.453125
9.99,1687331115.46875
4.05,1687331115.484375
-2.35,1687331115.5
-9.11,1687331115.515625
-16.25,1687331115.53125
-23.81,1687331115.546875
-31.79,1687331115.5625
-39.96,1687331115.578125
-47.85,1687331115.59375
-54.70,1687331115.609375
-59.55,1687331115.625
-61.53,1687331115.640625
-60.02,1687331115.65625
-54.92,1687331115.671875
-46.58,1687331115.6875
-35.81,1687331115.703125
-23.62,1687331115.71875
-11.03,1687331115.734375
1.08,1687331115.75
12.05,1687331115.765625
21.44,1687331115.78125
28.97,1687331115.796875
34.58,1687331115.8125
38.35,1687331115.828125
40.44,1687331115.84375
41.16,1687331115.859375
40.80,1687331115.875
39.68,1687331115.890625
37.99,1687331115.90625
35.82,1687331115.921875
33.23,1687331115.9375
30.31,1687331115.953125
27.22,1687331115.96875
24.18,1687331115.984375
21.38,1687331116.0
18.88,1687331116.015625
16.56,1687331116.03125
14.17,1687331116.046875
11.43,1687331116.0625
8.20,1687331116.078125
4.48,1687331116.09375
0.42,1687331116.109375
-3.78,1687331116.125
-7.96,1687331116.140625
-12.04,1687331116.15625
-15.99,1687331116.171875
-19.86,1687331116.1875
-23.79,1687331116.203125
-27.99,1687331116.21875
-32.74,1687331116.234375
-38.20,1687331116.25
-44.17,1687331116.265625
-49.96,1687331116.28125
-54.53,1687331116.296875
-56.65,1687331116.3125
-55.37,1687331116.328125
-50.25,1687331116.34375
-41.50,1687331116.359375
-29.86,1687331116.375
-16.38,1687331116.390625
-2.16,1687331116.40625
11.78,1687331116.421875
24.59,1687331116.4375
35.52,1687331116.453125
44.05,1687331116.46875
49.93,1687331116.484375
53.20,1687331116.5
54.22,1687331116.515625
53.51,1687331116.53125
51.63,1687331116.546875
48.98,1687331116.5625
45.84,1687331116.578125
42.32,1687331116.59375
38.49,1687331116.609375
34.46,1687331116.625
30.43,1687331116.640625
26.64,1687331116.65625
23.34,1687331116.671875
20.72,1687331116.6875
18.78,1687331116.703125
17.37,1687331116.71875
16.20,1687331116.734375
14.92,1687331116.75
13.19,1687331116.765625
10.79,1687331116.78125
7.64,1687331116.796875
3.84,1687331116.8125
-0.39,1687331116.828125
-4.75,1687331116.84375
-9.01,1687331116.859375
-13.12,1687331116.875
-17.22,1687331116.890625
-21.65,1687331116.90625
-26.72,1687331116.921875
-32.56,1687331116.9375
-38.90,1687331116.953125
-45.10,1687331116.96875
-50.18,1687331116.984375
-53.11,1687331117.0
-52.98,1687331117.015625
-49.21,1687331117.03125
-41.64,1687331117.046875
-30.62,1687331117.0625
-16.97,1687331117.078125
-1.94,1687331117.09375
13.06,1687331117.109375
26.71,1687331117.125
37.99,1687331117.140625
46.38,1687331117.15625
51.75,1687331117.171875
54.39,1687331117.1875
54.75,1687331117.203125
53.38,1687331117.21875
50.81,1687331117.234375
47.52,1687331117.25
43.88,1687331117.265625
40.22,1687331117.28125
36.75,1687331117.296875
33.58,1687331117.3125
30.76,1687331117.328125
28.27,1687331117.34375
26.05,1687331117.359375
24.07,1687331117.375
22.27,1687331117.390625
20.63,1687331117.40625
19.03,1687331117.421875
17.35,1687331117.4375
15.38,1687331117.453125
12.97,1687331117.46875
10.04,1687331117.484375
6.66,1687331117.5
2.96,1687331117.515625
-0.94,1687331117.53125
-5.00,1687331117.546875
-9.29,1687331117.5625
-13.98,1687331117.578125
-19.31,1687331117.59375
-25.41,1687331117.609375
-32.23,1687331117.625
-39.45,1687331117.640625
-46.38,1687331117.65625
-52.08,1687331117.671875
-55.46,1687331117.6875
-55.56,1687331117.703125
-51.81,1687331117.71875
-44.19,1687331117.734375
-33.28,1687331117.75
-20.16,1687331117.765625
-6.16,1687331117.78125
7.41,1687331117.796875
19.47,1687331117.8125
29.28,1687331117.828125
36.50,1687331117.84375
41.06,1687331117.859375
43.10,1687331117.875
42.91,1687331117.890625
40.90,1687331117.90625
37.56,1687331117.921875
33.46,1687331117.9375
29.17,1687331117.953125
25.10,1687331117.96875
21.48,1687331117.984375
18.29,1687331118.0
15.47,1687331118.015625
12.94,1687331118.03125
10.68,1687331118.046875
8.70,1687331118.0625
7.02,1687331118.078125
5.54,1687331118.09375
4.13,1687331118.109375
2.64,1687331118.125
0.91,1687331118.140625
-1.16,1687331118.15625
-3.67,1687331118.171875
-6.63,1687331118.1875
-9.99,1687331118.203125
-13.60,1687331118.21875
-17.24,1687331118.234375
-20.76,1687331118.25
-24.12,1687331118.265625
-27.50,1687331118.28125
-31.24,1687331118.296875
-35.63,1687331118.3125
-40.71,1687331118.328125
-46.11,1687331118.34375
-51.01,1687331118.359375
-54.30,1687331118.375
-54.92,1687331118.390625
-52.10,1687331118.40625
-45.62,1687331118.421875
-35.92,1687331118.4375
-23.90,1687331118.453125
-10.79,1687331118.46875
2.17,1687331118.484375
13.92,1687331118.5
23.66,1687331118.515625
30.88,1687331118.53125
35.39,1687331118.546875
37.26,1687331118.5625
36.81,1687331118.578125
34.56,1687331118.59375
31.15,1687331118.609375
27.22,1687331118.625
23.26,1687331118.640625
19.57,1687331118.65625
16.23,1687331118.671875
13.18,1687331118.6875
10.36,1687331118.703125
7.75,1687331118.71875
5.39,1687331118.734375
3.38,1687331118.75
1.71,1687331118.765625
0.34,1687331118.78125
-0.91,1687331118.796875
-2.23,1687331118.8125
-3.81,1687331118.828125
-5.77,1687331118.84375
-8.14,1687331118.859375
-10.89,1687331118.875
-13.91,1687331118.890625
-17.07,1687331118.90625
-20.27,1687331118.921875
-23.46,1687331118.9375
-26.68,1687331118.953125
-30.08,1687331118.96875
-33.82,1687331118.984375
-38.00,1687331119.0
-42.54,1687331119.015625
-47.10,1687331119.03125
-51.11,1687331119.046875
-53.78,1687331119.0625
-54.28,1687331119.078125
-51.90,1687331119.09375
-46.16,1687331119.109375
-37.00,1687331119.125
-24.88,1687331119.140625
-10.78,1687331119.15625
3.85,1687331119.171875
17.42,1687331119.1875
28.50,1687331119.203125
36.16,1687331119.21875
40.19,1687331119.234375
41.11,1687331119.25
39.96,1687331119.265625
37.89,1687331119.28125
35.84,1687331119.296875
34.24,1687331119.3125
33.05,1687331119.328125
31.90,1687331119.34375
30.44,1687331119.359375
28.61,1687331119.375
26.75,1687331119.390625
25.41,1687331119.40625
25.19,1687331119.421875
26.39,1687331119.4375
28.84,1687331119.453125
31.96,1687331119.46875
34.89,1687331119.484375
36.66,1687331119.5
36.44,1687331119.515625
33.83,1687331119.53125
29.29,1687331119.546875
24.46,1687331119.5625
22.16,1687331119.578125
25.67,1687331119.59375
37.54,1687331119.609375
58.37,1687331119.625
86.04,1687331119.640625
116.07,1687331119.65625
142.86,1687331119.671875
161.49,1687331119.6875
169.22,1687331119.703125
166.10,1687331119.71875
154.63,1687331119.734375
138.80,1687331119.75
123.01,1687331119.765625
111.18,1687331119.78125
106.32,1687331119.796875
110.21,1687331119.8125
123.18,1687331119.828125
144.08,1687331119.84375
170.44,1687331119.859375
198.87,1687331119.875
225.76,1687331119.890625
247.98,1687331119.90625
263.51,1687331119.921875
271.81,1687331119.9375
273.82,1687331119.953125
271.56,1687331119.96875
267.48,1687331119.984375
263.65,1687331120.0
261.10,1687331120.015625
259.48,1687331120.03125
257.28,1687331120.046875
252.60,1687331120.0625
244.01,1687331120.078125
231.23,1687331120.09375
215.24,1687331120.109375
197.76,1687331120.125
180.46,1687331120.140625
164.29,1687331120.15625
149.17,1687331120.171875
134.39,1687331120.1875
119.14,1687331120.203125
103.05,1687331120.21875
86.35,1687331120.234375
69.63,1687331120.25
53.44,1687331120.265625
37.96,1687331120.28125
22.91,1687331120.296875
7.70,1687331120.3125
-8.20,1687331120.328125
-25.18,1687331120.34375
-43.40,1687331120.359375
-62.75,1687331120.375
-82.79,1687331120.390625
-102.57,1687331120.40625
-120.51,1687331120.421875
-134.71,1687331120.4375
-143.52,1687331120.453125
-146.31,1687331120.46875
-144.00,1687331120.484375
-138.97,1687331120.5
-134.25,1687331120.515625
-132.39,1687331120.53125
-134.60,1687331120.546875
-140.54,1687331120.5625
-148.77,1687331120.578125
-157.62,1687331120.59375
-165.68,1687331120.609375
-172.05,1687331120.625
-176.11,1687331120.640625
-177.40,1687331120.65625
-175.66,1687331120.671875
-171.09,1687331120.6875
-164.50,1687331120.703125
-157.28,1687331120.71875
-150.90,1687331120.734375
-146.44,1687331120.75
-144.18,1687331120.765625
-143.54,1687331120.78125
-143.42,1687331120.796875
-142.65,1687331120.8125
-140.49,1687331120.828125
-136.93,1687331120.84375
-132.84,1687331120.859375
-129.56,1687331120.875
-128.52,1687331120.890625
-130.63,1687331120.90625
-135.93,1687331120.921875
-143.52,1687331120.9375
-152.01,1687331120.953125
-159.98,1687331120.96875
-166.44,1687331120.984375
-170.96,1687331121.0
-173.50,1687331121.015625
-174.19,1687331121.03125
-173.12,1687331121.046875
-170.37,1687331121.0625
-166.08,1687331121.078125
-160.43,1687331121.09375
-153.62,1687331121.109375
-145.70,1687331121.125
-136.53,1687331121.140625
-125.78,1687331121.15625
-113.16,1687331121.171875
-98.59,1687331121.1875
-82.38,1687331121.203125
-65.28,1687331121.21875
-48.27,1687331121.234375
-32.34,1687331121.25
-18.23,1687331121.265625
-6.20,1687331121.28125
3.92,1687331121.296875
12.49,1687331121.3125
19.76,1687331121.328125
25.65,1687331121.34375
29.75,1687331121.359375
31.62,1687331121.375
31.04,1687331121.390625
28.27,1687331121.40625
23.91,1687331121.421875
18.70,1687331121.4375
13.28,1687331121.453125
8.16,1687331121.46875
3.81,1687331121.484375
0.88,1687331121.5
0.13,1687331121.515625
2.25,1687331121.53125
7.50,1687331121.546875
15.48,1687331121.5625
25.35,1687331121.578125
36.15,1687331121.59375
47.30,1687331121.609375
58.69,1687331121.625
70.44,1687331121.640625
82.56,1687331121.65625
94.66,1687331121.671875
106.05,1687331121.6875
116.03,1687331121.703125
124.21,1687331121.71875
130.45,1687331121.734375
134.74,1687331121.75
136.76,1687331121.765625
135.85,1687331121.78125
131.24,1687331121.796875
122.42,1687331121.8125
109.55,1687331121.828125
93.52,1687331121.84375
75.71,1687331121.859375
57.41,1687331121.875
39.43,1687331121.890625
21.87,1687331121.90625
4.36,1687331121.921875
-13.53,1687331121.9375
-31.79,1687331121.953125
-49.81,1687331121.96875
-66.59,1687331121.984375
-81.40,1687331122.0
-94.23,1687331122.015625
-105.91,1687331122.03125
-117.78,1687331122.046875
-130.96,1687331122.0625
-145.76,1687331122.078125
-161.56,1687331122.09375
-177.16,1687331122.109375
-191.38,1687331122.125
-203.58,1687331122.140625
-213.74,1687331122.15625
-222.22,1687331122.171875
-229.39,1687331122.1875
-235.54,1687331122.203125
-240.91,1687331122.21875
-245.74,1687331122.234375
-250.17,1687331122.25
-254.06,1687331122.265625
-256.70,1687331122.28125
-256.95,1687331122.296875
-253.55,1687331122.3125
-245.78,1687331122.328125
-233.95,1687331122.34375
-219.47,1687331122.359375
-204.54,1687331122.375
-191.45,1687331122.390625
-181.96,1687331122.40625
-176.97,1687331122.421875
-176.41,1687331122.4375
-179.38,1687331122.453125
-184.41,1687331122.46875
-189.60,1687331122.484375
-192.96,1687331122.5
-192.84,1687331122.515625
-188.42,1687331122.53125
-179.95,1687331122.546875
-168.69,1687331122.5625
-156.32,1687331122.578125
-144.42,1687331122.59375
-134.05,1687331122.609375
-125.69,1687331122.625
-119.47,1687331122.640625
-115.37,1687331122.65625
-113.29,1687331122.671875
-112.88,1687331122.6875
-113.50,1687331122.703125
-114.41,1687331122.71875
-115.14,1687331122.734375
-115.81,1687331122.75
-117.13,1687331122.765625
-119.96,1687331122.78125
-124.79,1687331122.796875
-131.38,1687331122.8125
-138.84,1687331122.828125
-146.09,1687331122.84375
-152.28,1687331122.859375
-157.10,1687331122.875
-160.58,1687331122.890625
-162.72,1687331122.90625
-163.15,1687331122.921875
-160.96,1687331122.9375
-154.88,1687331122.953125
-143.60,1687331122.96875
-126.37,1687331122.984375
-103.15,1687331123.0
-74.77,1687331123.015625
-42.68,1687331123.03125
-8.58,1687331123.046875
25.98,1687331123.0625
59.85,1687331123.078125
92.22,1687331123.09375
122.30,1687331123.109375
149.01,1687331123.125
170.83,1687331123.140625
186.16,1687331123.15625
194.09,1687331123.171875
194.89,1687331123.1875
190.18,1687331123.203125
182.40,1687331123.21875
173.69,1687331123.234375
165.11,1687331123.25
156.70,1687331123.265625
148.40,1687331123.28125
140.72,1687331123.296875
134.50,1687331123.3125
129.61,1687331123.328125
123.97,1687331123.34375
113.97,1687331123.359375
96.59,1687331123.375
71.85,1687331123.390625
44.02,1687331123.40625
20.12,1687331123.421875
6.41,1687331123.4375
5.07,1687331123.453125
12.91,1687331123.46875
23.04,1687331123.484375
28.62,1687331123.5
26.13,1687331123.515625
16.54,1687331123.53125
3.94,1687331123.546875
-7.14,1687331123.5625
-13.90,1687331123.578125
-15.87,1687331123.59375
-13.86,1687331123.609375
-8.66,1687331123.625
-0.17,1687331123.640625
12.33,1687331123.65625
29.72,1687331123.671875
51.95,1687331123.6875
77.41,1687331123.703125
103.08,1687331123.71875
125.14,1687331123.734375
140.19,1687331123.75
146.42,1687331123.765625
144.13,1687331123.78125
135.48,1687331123.796875
123.56,1687331123.8125
111.30,1687331123.828125
100.66,1687331123.84375
92.44,1687331123.859375
86.56,1687331123.875
82.46,1687331123.890625
79.51,1687331123.90625
77.24,1687331123.921875
75.26,1687331123.9375
73.23,1687331123.953125
70.77,1687331123.96875
67.42,1687331123.984375
62.81,1687331124.0
56.79,1687331124.015625
49.48,1687331124.03125
41.25,1687331124.046875
32.61,1687331124.0625
23.98,1687331124.078125
15.56,1687331124.09375
7.16,1687331124.109375
-1.71,1687331124.125
-11.56,1687331124.140625
-22.49,1687331124.15625
-33.78,1687331124.171875
-43.74,1687331124.1875
-50.06,1687331124.203125
-50.47,1687331124.21875
-43.58,1687331124.234375
-29.42,1687331124.25
-9.52,1687331124.265625
13.60,1687331124.28125
37.17,1687331124.296875
58.88,1687331124.3125
77.23,1687331124.328125
91.47,1687331124.34375
101.29,1687331124.359375
106.59,1687331124.375
107.43,1687331124.390625
104.16,1687331124.40625
97.64,1687331124.421875
89.14,1687331124.4375
80.10,1687331124.453125
71.72,1687331124.46875
64.64,1687331124.484375
58.90,1687331124.5
54.08,1687331124.515625
49.60,1687331124.53125
44.97,1687331124.546875
39.89,1687331124.5625
34.39,1687331124.578125
28.67,1687331124.59375
23.08,1687331124.609375
17.99,1687331124.625
13.63,1687331124.640625
10.00,1687331124.65625
6.73,1687331124.671875
3.16,1687331124.6875
-1.62,1687331124.703125
-8.50,1687331124.71875
-18.01,1687331124.734375
-29.98,1687331124.75
-43.30,1687331124.765625
-55.89,1687331124.78125
-65.07,1687331124.796875
-68.23,1687331124.8125
-63.55,1687331124.828125
-50.69,1687331124.84375
-30.85,1687331124.859375
-6.37,1687331124.875
19.97,1687331124.890625
45.65,1687331124.90625
68.88,1687331124.921875
88.59,1687331124.9375
104.18,1687331124.953125
115.33,1687331124.96875
121.79,1687331124.984375
123.52,1687331125.0
120.77,1687331125.015625
114.31,1687331125.03125
105.33,1687331125.046875
95.33,1687331125.0625
85.68,1687331125.078125
77.32,1687331125.09375
70.56,1687331125.109375
65.04,1687331125.125
60.08,1687331125.140625
54.90,1687331125.15625
49.08,1687331125.171875
42.57,1687331125.1875
35.75,1687331125.203125
29.10,1687331125.21875
22.94,1687331125.234375
17.25,1687331125.25
11.64,1687331125.265625
5.45,1687331125.28125
-2.03,1687331125.296875
-11.47,1687331125.3125
-23.23,1687331125.328125
-37.19,1687331125.34375
-52.49,1687331125.359375
-67.40,1687331125.375
-79.48,1687331125.390625
-86.09,1687331125.40625
-85.17,1687331125.421875
-75.93,1687331125.4375
-59.13,1687331125.453125
-36.89,1687331125.46875
-12.00,1687331125.484375
12.89,1687331125.5
35.78,1687331125.515625
55.46,1687331125.53125
71.22,1687331125.546875
82.58,1687331125.5625
89.20,1687331125.578125
90.98,1687331125.59375
88.33,1687331125.609375
82.27,1687331125.625
74.26,1687331125.640625
65.81,1687331125.65625
58.08,1687331125.671875
51.51,1687331125.6875
45.96,1687331125.703125
40.87,1687331125.71875
35.68,1687331125.734375
30.09,1687331125.75
24.19,1687331125.765625
18.27,1687331125.78125
12.67,1687331125.796875
7.58,1687331125.8125
2.95,1687331125.828125
-1.46,1687331125.84375
-5.95,1687331125.859375
-10.87,1687331125.875
-16.61,1687331125.890625
-23.62,1687331125.90625
-32.38,1687331125.921875
-43.22,1687331125.9375
-55.98,1687331125.953125
-69.70,1687331125.96875
-82.53,1687331125.984375
-91.97,1687331126.0
-95.55,1687331126.015625
-91.54,1687331126.03125
-79.53,1687331126.046875
-60.65,1687331126.0625
-37.18,1687331126.078125
-11.87,1687331126.09375
12.76,1687331126.109375
34.92,1687331126.125
53.61,1687331126.140625
68.42,1687331126.15625
79.15,1687331126.171875
85.63,1687331126.1875
87.79,1687331126.203125
85.85,1687331126.21875
80.47,1687331126.234375
72.85,1687331126.25
64.43,1687331126.265625
56.53,1687331126.28125
49.93,1687331126.296875
44.77,1687331126.3125
40.60,1687331126.328125
36.78,1687331126.34375
32.82,1687331126.359375
28.53,1687331126.375
24.09,1687331126.390625
19.75,1687331126.40625
15.67,1687331126.421875
11.71,1687331126.4375
7.59,1687331126.453125
2.93,1687331126.46875
-2.60,1687331126.484375
-9.23,1687331126.5
-17.17,1687331126.515625
-26.61,1687331126.53125
-37.60,1687331126.546875
-49.77,1687331126.5625
-62.08,1687331126.578125
-72.81,1687331126.59375
-79.72,1687331126.609375
-80.71,1687331126.625
-74.39,1687331126.640625
-60.57,1687331126.65625
-40.37,1687331126.671875
-15.92,1687331126.6875
10.16,1687331126.703125
35.45,1687331126.71875
57.99,1687331126.734375
76.55,1687331126.75
90.43,1687331126.765625
99.34,1687331126.78125
103.27,1687331126.796875
102.46,1687331126.8125
97.58,1687331126.828125
89.66,1687331126.84375
80.07,1687331126.859375
