1684741144.00,timestamp
-0.00,1684741144.0
-0.00,1684741144.015625
-0.00,1684741144.03125
-0.00,1684741144.046875
-0.00,1684741144.0625
-0.00,1684741144.078125
-0.00,1684741144.09375
-0.00,1684741144.109375
-0.00,1684741144.125
-0.00,1684741144.140625
0.00,1684741144.15625
0.01,1684741144.171875
0.01,1684741144.1875
-0.00,1684741144.203125
-0.03,1684741144.21875
-0.05,1684741144.234375
-0.05,1684741144.25
0.00,1684741144.265625
0.13,1684741144.28125
0.36,1684741144.296875
0.66,1684741144.3125
1.01,1684741144.328125
1.37,1684741144.34375
1.72,1684741144.359375
2.06,1684741144.375
2.40,1684741144.390625
2.79,1684741144.40625
3.24,1684741144.421875
3.80,1684741144.4375
4.42,1684741144.453125
5.06,1684741144.46875
5.66,1684741144.484375
6.20,1684741144.5
6.68,1684741144.515625
7.15,1684741144.53125
7.68,1684741144.546875
8.31,1684741144.5625
9.14,1684741144.578125
10.09,1684741144.59375
11.04,1684741144.609375
11.88,1684741144.625
12.56,1684741144.640625
13.14,1684741144.65625
13.76,1684741144.671875
14.65,1684741144.6875
15.96,1684741144.703125
17.91,1684741144.71875
20.32,1684741144.734375
22.90,1684741144.75
25.38,1684741144.765625
27.58,1684741144.78125
29.57,1684741144.796875
31.68,1684741144.8125
34.32,1684741144.828125
37.81,1684741144.84375
42.54,1684741144.859375
48.15,1684741144.875
54.11,1684741144.890625
59.84,1684741144.90625
64.97,1684741144.921875
69.58,1684741144.9375
74.14,1684741144.953125
79.34,1684741144.96875
85.70,1684741144.984375
93.77,1684741145.0
103.03,1684741145.015625
112.67,1684741145.03125
121.78,1684741145.046875
129.77,1684741145.0625
136.66,1684741145.078125
143.08,1684741145.09375
150.37,1684741145.109375
157.27,1684741145.125
166.06,1684741145.140625
177.34,1684741145.15625
191.19,1684741145.171875
206.37,1684741145.1875
219.95,1684741145.203125
227.56,1684741145.21875
224.55,1684741145.234375
207.59,1684741145.25
175.82,1684741145.265625
131.67,1684741145.28125
78.98,1684741145.296875
22.05,1684741145.3125
-35.94,1684741145.328125
-93.51,1684741145.34375
-150.44,1684741145.359375
-206.82,1684741145.375
-262.30,1684741145.390625
-315.94,1684741145.40625
-366.18,1684741145.421875
-412.09,1684741145.4375
-453.04,1684741145.453125
-488.62,1684741145.46875
-518.10,1684741145.484375
-540.17,1684741145.5
-553.04,1684741145.515625
-554.74,1684741145.53125
-543.92,1684741145.546875
-520.14,1684741145.5625
-484.59,1684741145.578125
-439.56,1684741145.59375
-388.06,1684741145.609375
-333.06,1684741145.625
-277.00,1684741145.640625
-221.50,1684741145.65625
-167.41,1684741145.671875
-115.28,1684741145.6875
-65.55,1684741145.703125
-19.16,1684741145.71875
22.69,1684741145.734375
58.74,1684741145.75
88.09,1684741145.765625
110.57,1684741145.78125
126.87,1684741145.796875
138.28,1684741145.8125
146.24,1684741145.828125
151.95,1684741145.84375
155.93,1684741145.859375
158.11,1684741145.875
158.08,1684741145.890625
155.46,1684741145.90625
150.02,1684741145.921875
141.75,1684741145.9375
130.93,1684741145.953125
118.31,1684741145.96875
105.46,1684741145.984375
94.73,1684741146.0
88.88,1684741146.015625
89.97,1684741146.03125
98.30,1684741146.046875
111.89,1684741146.0625
127.00,1684741146.078125
139.54,1684741146.09375
146.60,1684741146.109375
147.34,1684741146.125
142.80,1684741146.140625
134.94,1684741146.15625
125.50,1684741146.171875
115.37,1684741146.1875
104.76,1684741146.203125
93.75,1684741146.21875
82.76,1684741146.234375
72.60,1684741146.25
64.19,1684741146.265625
57.76,1684741146.28125
52.84,1684741146.296875
48.52,1684741146.3125
43.82,1684741146.328125
38.19,1684741146.34375
31.74,1684741146.359375
25.18,1684741146.375
19.48,1684741146.390625
15.51,1684741146.40625
13.62,1684741146.421875
13.60,1684741146.4375
14.74,1684741146.453125
16.05,1684741146.46875
16.69,1684741146.484375
16.17,1684741146.5
14.48,1684741146.515625
12.01,1684741146.53125
9.32,1684741146.546875
6.86,1684741146.5625
4.86,1684741146.578125
3.29,1684741146.59375
1.91,1684741146.609375
0.53,1684741146.625
-0.96,1684741146.640625
-2.51,1684741146.65625
-3.96,1684741146.671875
-5.14,1684741146.6875
-6.01,1684741146.703125
-6.59,1684741146.71875
-6.95,1684741146.734375
-7.09,1684741146.75
-6.91,1684741146.765625
-6.29,1684741146.78125
-5.23,1684741146.796875
-3.92,1684741146.8125
-2.74,1684741146.828125
-2.11,1684741146.84375
-2.27,1684741146.859375
-3.20,1684741146.875
-4.58,1684741146.890625
-5.93,1684741146.90625
-6.89,1684741146.921875
-7.31,1684741146.9375
-7.31,1684741146.953125
-7.16,1684741146.96875
-7.06,1684741146.984375
-7.07,1684741147.0
-7.07,1684741147.015625
-6.86,1684741147.03125
-6.29,1684741147.046875
-5.32,1684741147.0625
-4.02,1684741147.078125
-2.49,1684741147.09375
-0.87,1684741147.109375
0.75,1684741147.125
2.28,1684741147.140625
3.59,1684741147.15625
4.53,1684741147.171875
4.97,1684741147.1875
4.86,1684741147.203125
4.26,1684741147.21875
3.32,1684741147.234375
2.25,1684741147.25
1.22,1684741147.265625
0.34,1684741147.28125
-0.34,1684741147.296875
-0.82,1684741147.3125
-1.12,1684741147.328125
-1.25,1684741147.34375
-1.26,1684741147.359375
-1.17,1684741147.375
-0.99,1684741147.390625
-0.69,1684741147.40625
-0.22,1684741147.421875
0.41,1684741147.4375
1.17,1684741147.453125
1.96,1684741147.46875
2.66,1684741147.484375
3.19,1684741147.5
3.58,1684741147.515625
3.91,1684741147.53125
4.31,1684741147.546875
4.88,1684741147.5625
5.59,1684741147.578125
6.36,1684741147.59375
7.00,1684741147.609375
7.31,1684741147.625
7.09,1684741147.640625
6.24,1684741147.65625
4.80,1684741147.671875
2.95,1684741147.6875
1.05,1684741147.703125
-0.55,1684741147.71875
-1.55,1684741147.734375
-1.75,1684741147.75
-1.27,1684741147.765625
-0.43,1684741147.78125
0.33,1684741147.796875
0.62,1684741147.8125
0.24,1684741147.828125
-0.74,1684741147.84375
-2.09,1684741147.859375
-3.49,1684741147.875
-4.72,1684741147.890625
-5.71,1684741147.90625
-6.51,1684741147.921875
-7.20,1684741147.9375
-7.85,1684741147.953125
-8.45,1684741147.96875
-8.92,1684741147.984375
-9.21,1684741148.0
-9.29,1684741148.015625
-9.14,1684741148.03125
-8.78,1684741148.046875
-8.22,1684741148.0625
-7.46,1684741148.078125
-6.57,1684741148.09375
-5.63,1684741148.109375
-4.82,1684741148.125
-4.28,1684741148.140625
-4.10,1684741148.15625
-4.27,1684741148.171875
-4.62,1684741148.1875
-4.93,1684741148.203125
-5.01,1684741148.21875
-4.78,1684741148.234375
-4.32,1684741148.25
-3.84,1684741148.265625
-3.53,1684741148.28125
-3.50,1684741148.296875
-3.73,1684741148.3125
-4.11,1684741148.328125
-4.50,1684741148.34375
-4.77,1684741148.359375
-4.77,1684741148.375
-4.34,1684741148.390625
-3.27,1684741148.40625
-1.41,1684741148.421875
1.21,1684741148.4375
4.37,1684741148.453125
7.61,1684741148.46875
10.43,1684741148.484375
12.43,1684741148.5
13.46,1684741148.515625
13.56,1684741148.53125
12.99,1684741148.546875
11.97,1684741148.5625
10.69,1684741148.578125
9.25,1684741148.59375
7.72,1684741148.609375
6.17,1684741148.625
4.70,1684741148.640625
3.40,1684741148.65625
2.30,1684741148.671875
1.36,1684741148.6875
0.52,1684741148.703125
-0.26,1684741148.71875
-1.03,1684741148.734375
-1.76,1684741148.75
-2.44,1684741148.765625
-3.02,1684741148.78125
-3.51,1684741148.796875
-3.96,1684741148.8125
-4.49,1684741148.828125
-5.21,1684741148.84375
-6.14,1684741148.859375
-7.27,1684741148.875
-8.48,1684741148.890625
-9.64,1684741148.90625
-10.67,1684741148.921875
-11.59,1684741148.9375
-12.54,1684741148.953125
-13.75,1684741148.96875
-15.41,1684741148.984375
-17.60,1684741149.0
-20.22,1684741149.015625
-23.02,1684741149.03125
-25.62,1684741149.046875
-27.63,1684741149.0625
-28.67,1684741149.078125
-28.47,1684741149.09375
-26.90,1684741149.109375
-23.96,1684741149.125
-19.82,1684741149.140625
-14.85,1684741149.15625
-9.50,1684741149.171875
-4.23,1684741149.1875
0.62,1684741149.203125
4.89,1684741149.21875
8.60,1684741149.234375
11.87,1684741149.25
14.74,1684741149.265625
17.16,1684741149.28125
18.99,1684741149.296875
20.11,1684741149.3125
20.51,1684741149.328125
20.38,1684741149.34375
19.97,1684741149.359375
19.50,1684741149.375
19.01,1684741149.390625
18.41,1684741149.40625
17.54,1684741149.421875
16.27,1684741149.4375
14.66,1684741149.453125
12.86,1684741149.46875
11.02,1684741149.484375
9.22,1684741149.5
7.40,1684741149.515625
5.48,1684741149.53125
3.39,1684741149.546875
1.15,1684741149.5625
-1.13,1684741149.578125
-3.37,1684741149.59375
-5.54,1684741149.609375
-7.76,1684741149.625
-10.17,1684741149.640625
-12.91,1684741149.65625
-15.96,1684741149.671875
-19.09,1684741149.6875
-21.90,1684741149.703125
-23.88,1684741149.71875
-24.57,1684741149.734375
-23.65,1684741149.75
-21.07,1684741149.765625
-17.02,1684741149.78125
-11.90,1684741149.796875
-6.24,1684741149.8125
-0.53,1684741149.828125
4.82,1684741149.84375
9.53,1684741149.859375
13.40,1684741149.875
16.35,1684741149.890625
18.33,1684741149.90625
19.40,1684741149.921875
19.69,1684741149.9375
19.40,1684741149.953125
18.75,1684741149.96875
17.91,1684741149.984375
16.98,1684741150.0
16.02,1684741150.015625
15.06,1684741150.03125
14.12,1684741150.046875
13.23,1684741150.0625
12.40,1684741150.078125
11.57,1684741150.09375
10.63,1684741150.109375
9.47,1684741150.125
8.03,1684741150.140625
6.32,1684741150.15625
4.43,1684741150.171875
2.47,1684741150.1875
0.53,1684741150.203125
-1.35,1684741150.21875
-3.20,1684741150.234375
-5.08,1684741150.25
-7.08,1684741150.265625
-9.31,1684741150.28125
-11.83,1684741150.296875
-14.65,1684741150.3125
-17.68,1684741150.328125
-20.64,1684741150.34375
-23.13,1684741150.359375
-24.65,1684741150.375
-24.74,1684741150.390625
-23.15,1684741150.40625
-19.87,1684741150.421875
-15.19,1684741150.4375
-9.61,1684741150.453125
-3.69,1684741150.46875
2.03,1684741150.484375
7.18,1684741150.5
11.56,1684741150.515625
15.09,1684741150.53125
17.77,1684741150.546875
19.65,1684741150.5625
20.77,1684741150.578125
21.20,1684741150.59375
20.99,1684741150.609375
20.24,1684741150.625
19.10,1684741150.640625
17.72,1684741150.65625
16.29,1684741150.671875
14.96,1684741150.6875
13.79,1684741150.703125
12.78,1684741150.71875
11.80,1684741150.734375
10.73,1684741150.75
9.45,1684741150.765625
7.94,1684741150.78125
6.23,1684741150.796875
4.40,1684741150.8125
2.50,1684741150.828125
0.56,1684741150.84375
-1.44,1684741150.859375
-3.50,1684741150.875
-5.64,1684741150.890625
-7.82,1684741150.90625
-10.07,1684741150.921875
-12.40,1684741150.9375
-14.88,1684741150.953125
-17.53,1684741150.96875
-20.29,1684741150.984375
-22.97,1684741151.0
-25.24,1684741151.015625
-26.66,1684741151.03125
-26.81,1684741151.046875
-25.37,1684741151.0625
-22.24,1684741151.078125
-17.66,1684741151.09375
-12.09,1684741151.109375
-6.13,1684741151.125
-0.36,1684741151.140625
4.83,1684741151.15625
9.29,1684741151.171875
13.07,1684741151.1875
16.26,1684741151.203125
18.91,1684741151.21875
20.96,1684741151.234375
22.29,1684741151.25
22.81,1684741151.265625
22.52,1684741151.28125
21.59,1684741151.296875
20.25,1684741151.3125
18.75,1684741151.328125
17.21,1684741151.34375
15.72,1684741151.359375
14.29,1684741151.375
12.94,1684741151.390625
11.69,1684741151.40625
10.58,1684741151.421875
9.59,1684741151.4375
8.63,1684741151.453125
7.51,1684741151.46875
6.04,1684741151.484375
4.11,1684741151.5
1.73,1684741151.515625
-0.91,1684741151.53125
-3.56,1684741151.546875
-5.96,1684741151.5625
-8.01,1684741151.578125
-9.75,1684741151.59375
-11.40,1684741151.609375
-13.22,1684741151.625
-15.45,1684741151.640625
-18.16,1684741151.65625
-21.19,1684741151.671875
-24.17,1684741151.6875
-26.53,1684741151.703125
-27.70,1684741151.71875
-27.22,1684741151.734375
-24.95,1684741151.75
-21.07,1684741151.765625
-16.05,1684741151.78125
-10.50,1684741151.796875
-4.96,1684741151.8125
0.22,1684741151.828125
4.94,1684741151.84375
9.23,1684741151.859375
13.13,1684741151.875
16.57,1684741151.890625
19.38,1684741151.90625
21.38,1684741151.921875
22.46,1684741151.9375
22.69,1684741151.953125
22.30,1684741151.96875
21.56,1684741151.984375
20.68,1684741152.0
19.71,1684741152.015625
18.63,1684741152.03125
17.37,1684741152.046875
15.93,1684741152.0625
14.43,1684741152.078125
12.98,1684741152.09375
11.69,1684741152.109375
10.48,1684741152.125
9.21,1684741152.140625
7.65,1684741152.15625
5.70,1684741152.171875
3.35,1684741152.1875
0.77,1684741152.203125
-1.85,1684741152.21875
-4.31,1684741152.234375
-6.52,1684741152.25
-8.47,1684741152.265625
-10.26,1684741152.28125
-12.02,1684741152.296875
-13.90,1684741152.3125
-16.01,1684741152.328125
-18.38,1684741152.34375
-20.93,1684741152.359375
-23.47,1684741152.375
-25.70,1684741152.390625
-27.25,1684741152.40625
-27.76,1684741152.421875
-26.94,1684741152.4375
-24.66,1684741152.453125
-20.99,1684741152.46875
-16.22,1684741152.484375
-10.78,1684741152.5
-5.18,1684741152.515625
0.09,1684741152.53125
4.68,1684741152.546875
8.37,1684741152.5625
11.09,1684741152.578125
12.92,1684741152.59375
14.03,1684741152.609375
14.58,1684741152.625
14.74,1684741152.640625
14.55,1684741152.65625
14.03,1684741152.671875
13.11,1684741152.6875
11.78,1684741152.703125
10.13,1684741152.71875
8.34,1684741152.734375
6.62,1684741152.75
5.16,1684741152.765625
3.98,1684741152.78125
3.02,1684741152.796875
2.13,1684741152.8125
1.18,1684741152.828125
0.03,1684741152.84375
-1.38,1684741152.859375
-3.05,1684741152.875
-4.98,1684741152.890625
-7.10,1684741152.90625
-9.29,1684741152.921875
-11.41,1684741152.9375
-13.35,1684741152.953125
-15.04,1684741152.96875
-16.58,1684741152.984375
-18.13,1684741153.0
-19.91,1684741153.015625
-21.99,1684741153.03125
-24.25,1684741153.046875
-26.27,1684741153.0625
-27.51,1684741153.078125
-27.40,1684741153.09375
-25.61,1684741153.109375
-22.14,1684741153.125
-17.32,1684741153.140625
-11.70,1684741153.15625
-5.79,1684741153.171875
0.01,1684741153.1875
5.51,1684741153.203125
10.59,1684741153.21875
15.16,1684741153.234375
19.03,1684741153.25
22.05,1684741153.265625
24.10,1684741153.28125
25.20,1684741153.296875
25.47,1684741153.3125
25.15,1684741153.328125
24.39,1684741153.34375
23.32,1684741153.359375
21.94,1684741153.375
20.27,1684741153.390625
18.37,1684741153.40625
16.38,1684741153.421875
14.51,1684741153.4375
12.92,1684741153.453125
11.67,1684741153.46875
10.63,1684741153.484375
9.58,1684741153.5
8.25,1684741153.515625
6.45,1684741153.53125
4.19,1684741153.546875
1.63,1684741153.5625
-0.96,1684741153.578125
-3.31,1684741153.59375
-5.31,1684741153.609375
-7.01,1684741153.625
-8.63,1684741153.640625
-10.41,1684741153.65625
-12.56,1684741153.671875
-15.17,1684741153.6875
-18.11,1684741153.703125
-21.17,1684741153.71875
-23.98,1684741153.734375
-26.07,1684741153.75
-27.00,1684741153.765625
-26.39,1684741153.78125
-24.11,1684741153.796875
-20.34,1684741153.8125
-15.52,1684741153.828125
-10.28,1684741153.84375
-5.21,1684741153.859375
-0.70,1684741153.875
3.11,1684741153.890625
6.25,1684741153.90625
8.81,1684741153.921875
10.85,1684741153.9375
12.33,1684741153.953125
13.21,1684741153.96875
13.49,1684741153.984375
13.23,1684741154.0
12.58,1684741154.015625
11.72,1684741154.03125
10.78,1684741154.046875
9.85,1684741154.0625
8.98,1684741154.078125
8.17,1684741154.09375
7.38,1684741154.109375
6.58,1684741154.125
5.72,1684741154.140625
4.75,1684741154.15625
3.65,1684741154.171875
2.44,1684741154.1875
1.14,1684741154.203125
-0.26,1684741154.21875
-1.75,1684741154.234375
-3.34,1684741154.25
-5.03,1684741154.265625
-6.82,1684741154.28125
-8.65,1684741154.296875
-10.49,1684741154.3125
-12.36,1684741154.328125
-14.29,1684741154.34375
-16.36,1684741154.359375
-18.63,1684741154.375
-21.03,1684741154.390625
-23.31,1684741154.40625
-25.03,1684741154.421875
-25.62,1684741154.4375
-24.62,1684741154.453125
-21.83,1684741154.46875
-17.45,1684741154.484375
-12.04,1684741154.5
-6.35,1684741154.515625
-1.01,1684741154.53125
3.59,1684741154.546875
7.35,1684741154.5625
10.37,1684741154.578125
12.80,1684741154.59375
14.68,1684741154.609375
15.97,1684741154.625
16.60,1684741154.640625
16.57,1684741154.65625
16.02,1684741154.671875
15.16,1684741154.6875
14.21,1684741154.703125
13.35,1684741154.71875
12.61,1684741154.734375
11.97,1684741154.75
11.29,1684741154.765625
10.48,1684741154.78125
9.44,1684741154.796875
8.16,1684741154.8125
6.67,1684741154.828125
5.02,1684741154.84375
3.29,1684741154.859375
1.54,1684741154.875
-0.21,1684741154.890625
-1.94,1684741154.90625
-3.62,1684741154.921875
-5.28,1684741154.9375
-6.94,1684741154.953125
-8.69,1684741154.96875
-10.63,1684741154.984375
-12.83,1684741155.0
-15.26,1684741155.015625
-17.77,1684741155.03125
-20.02,1684741155.046875
-21.59,1684741155.0625
-22.06,1684741155.078125
-21.11,1684741155.09375
-18.67,1684741155.109375
-14.95,1684741155.125
-10.40,1684741155.140625
-5.57,1684741155.15625
-0.95,1684741155.171875
3.16,1684741155.1875
6.68,1684741155.203125
9.68,1684741155.21875
12.29,1684741155.234375
14.51,1684741155.25
16.20,1684741155.265625
17.13,1684741155.28125
17.09,1684741155.296875
16.07,1684741155.3125
14.29,1684741155.328125
12.18,1684741155.34375
10.19,1684741155.359375
8.67,1684741155.375
7.71,1684741155.390625
7.23,1684741155.40625
6.98,1684741155.421875
6.71,1684741155.4375
6.21,1684741155.453125
5.38,1684741155.46875
4.22,1684741155.484375
2.79,1684741155.5
1.16,1684741155.515625
-0.61,1684741155.53125
-2.49,1684741155.546875
-4.47,1684741155.5625
-6.55,1684741155.578125
-8.76,1684741155.59375
-11.11,1684741155.609375
-13.61,1684741155.625
-16.25,1684741155.640625
-18.94,1684741155.65625
-21.49,1684741155.671875
-23.54,1684741155.6875
-24.65,1684741155.703125
-24.33,1684741155.71875
-22.34,1684741155.734375
-18.69,1684741155.75
-13.80,1684741155.765625
-8.30,1684741155.78125
-2.85,1684741155.796875
2.09,1684741155.8125
6.29,1684741155.828125
9.77,1684741155.84375
12.60,1684741155.859375
14.83,1684741155.875
16.47,1684741155.890625
17.48,1684741155.90625
17.87,1684741155.921875
17.72,1684741155.9375
17.12,1684741155.953125
16.18,1684741155.96875
14.99,1684741155.984375
13.65,1684741156.0
12.31,1684741156.015625
11.13,1684741156.03125
10.21,1684741156.046875
9.52,1684741156.0625
8.87,1684741156.078125
8.04,1684741156.09375
6.84,1684741156.109375
5.26,1684741156.125
3.43,1684741156.140625
1.50,1684741156.15625
-0.42,1684741156.171875
-2.32,1684741156.1875
-4.26,1684741156.203125
-6.26,1684741156.21875
-8.32,1684741156.234375
-10.37,1684741156.25
-12.44,1684741156.265625
-14.61,1684741156.28125
-16.96,1684741156.296875
-19.45,1684741156.3125
-21.84,1684741156.328125
-23.65,1684741156.34375
-24.32,1684741156.359375
-23.36,1684741156.375
-20.59,1684741156.390625
-16.18,1684741156.40625
-10.63,1684741156.421875
-4.60,1684741156.4375
1.21,1684741156.453125
6.29,1684741156.46875
10.40,1684741156.484375
13.54,1684741156.5
15.86,1684741156.515625
17.55,1684741156.53125
18.67,1684741156.546875
19.21,1684741156.5625
19.10,1684741156.578125
18.35,1684741156.59375
17.12,1684741156.609375
15.69,1684741156.625
14.35,1684741156.640625
13.28,1684741156.65625
12.52,1684741156.671875
11.93,1684741156.6875
11.31,1684741156.703125
10.46,1684741156.71875
9.29,1684741156.734375
7.81,1684741156.75
6.11,1684741156.765625
4.29,1684741156.78125
2.46,1684741156.796875
0.59,1684741156.8125
-1.35,1684741156.828125
-3.45,1684741156.84375
-5.73,1684741156.859375
-8.17,1684741156.875
-10.76,1684741156.890625
-13.47,1684741156.90625
-16.34,1684741156.921875
-19.30,1684741156.9375
-22.13,1684741156.953125
-24.39,1684741156.96875
-25.52,1684741156.984375
-25.03,1684741157.0
-22.72,1684741157.015625
-18.81,1684741157.03125
-13.86,1684741157.046875
-8.52,1684741157.0625
-3.33,1684741157.078125
1.41,1684741157.09375
5.63,1684741157.109375
9.33,1684741157.125
12.50,1684741157.140625
15.04,1684741157.15625
16.83,1684741157.171875
17.84,1684741157.1875
18.15,1684741157.203125
17.90,1684741157.21875
17.24,1684741157.234375
16.29,1684741157.25
15.11,1684741157.265625
13.76,1684741157.28125
12.33,1684741157.296875
10.93,1684741157.3125
9.65,1684741157.328125
8.52,1684741157.34375
7.47,1684741157.359375
6.39,1684741157.375
5.20,1684741157.390625
3.85,1684741157.40625
2.40,1684741157.421875
0.87,1684741157.4375
-0.74,1684741157.453125
-2.54,1684741157.46875
-4.65,1684741157.484375
-7.19,1684741157.5
-10.14,1684741157.515625
-13.37,1684741157.53125
-16.63,1684741157.546875
-19.61,1684741157.5625
-21.93,1684741157.578125
-23.21,1684741157.59375
-23.08,1684741157.609375
-21.33,1684741157.625
-17.99,1684741157.640625
-13.36,1684741157.65625
-7.99,1684741157.671875
-2.50,1684741157.6875
2.61,1684741157.703125
7.04,1684741157.71875
10.74,1684741157.734375
13.77,1684741157.75
16.19,1684741157.765625
17.98,1684741157.78125
19.06,1684741157.796875
19.37,1684741157.8125
18.94,1684741157.828125
17.89,1684741157.84375
16.44,1684741157.859375
14.82,1684741157.875
13.21,1684741157.890625
11.72,1684741157.90625
10.41,1684741157.921875
9.23,1684741157.9375
8.15,1684741157.953125
7.06,1684741157.96875
5.91,1684741157.984375
4.66,1684741158.0
3.33,1684741158.015625
1.91,1684741158.03125
0.41,1684741158.046875
-1.25,1684741158.0625
-3.14,1684741158.078125
-5.35,1684741158.09375
-7.91,1684741158.109375
-10.75,1684741158.125
-13.73,1684741158.140625
-16.67,1684741158.15625
-19.34,1684741158.171875
-21.48,1684741158.1875
-22.78,1684741158.203125
-22.89,1684741158.21875
-21.55,1684741158.234375
-18.64,1684741158.25
-14.32,1684741158.265625
-9.01,1684741158.28125
-3.31,1684741158.296875
2.23,1684741158.3125
7.17,1684741158.328125
11.33,1684741158.34375
14.67,1684741158.359375
17.22,1684741158.375
18.97,1684741158.390625
19.83,1684741158.40625
19.74,1684741158.421875
18.80,1684741158.4375
17.24,1684741158.453125
15.46,1684741158.46875
13.85,1684741158.484375
12.65,1684741158.5
11.83,1684741158.515625
11.17,1684741158.53125
10.36,1684741158.546875
9.18,1684741158.5625
7.62,1684741158.578125
5.83,1684741158.59375
4.00,1684741158.609375
2.23,1684741158.625
0.52,1684741158.640625
-1.26,1684741158.65625
-3.21,1684741158.671875
-5.38,1684741158.6875
-7.75,1684741158.703125
-10.27,1684741158.71875
-12.95,1684741158.734375
-15.82,1684741158.75
-18.92,1684741158.765625
-22.11,1684741158.78125
-25.04,1684741158.796875
-27.17,1684741158.8125
-27.90,1684741158.828125
-26.78,1684741158.84375
-23.71,1684741158.859375
-18.97,1684741158.875
-13.21,1684741158.890625
-7.20,1684741158.90625
-1.63,1684741158.921875
3.10,1684741158.9375
6.96,1684741158.953125
10.10,1684741158.96875
12.74,1684741158.984375
14.95,1684741159.0
16.61,1684741159.015625
17.49,1684741159.03125
17.45,1684741159.046875
16.55,1684741159.0625
15.12,1684741159.078125
13.61,1684741159.09375
12.40,1684741159.109375
11.62,1684741159.125
11.08,1684741159.140625
10.44,1684741159.15625
9.37,1684741159.171875
7.78,1684741159.1875
5.83,1684741159.203125
3.87,1684741159.21875
2.18,1684741159.234375
0.87,1684741159.25
-0.21,1684741159.265625
-1.32,1684741159.28125
-2.70,1684741159.296875
-4.44,1684741159.3125
-6.51,1684741159.328125
-8.84,1684741159.34375
-11.38,1684741159.359375
-14.09,1684741159.375
-16.89,1684741159.390625
-19.55,1684741159.40625
-21.67,1684741159.421875
-22.75,1684741159.4375
-22.36,1684741159.453125
-20.32,1684741159.46875
-16.77,1684741159.484375
-12.12,1684741159.5
-6.94,1684741159.515625
-1.76,1684741159.53125
3.01,1684741159.546875
7.19,1684741159.5625
10.76,1684741159.578125
13.74,1684741159.59375
16.13,1684741159.609375
17.87,1684741159.625
18.84,1684741159.640625
18.98,1684741159.65625
18.33,1684741159.671875
17.08,1684741159.6875
15.53,1684741159.703125
13.98,1684741159.71875
12.60,1684741159.734375
11.48,1684741159.75
10.52,1684741159.765625
9.60,1684741159.78125
8.60,1684741159.796875
7.44,1684741159.8125
6.10,1684741159.828125
4.57,1684741159.84375
2.87,1684741159.859375
1.07,1684741159.875
-0.79,1684741159.890625
-2.64,1684741159.90625
-4.47,1684741159.921875
-6.29,1684741159.9375
-8.14,1684741159.953125
-10.12,1684741159.96875
-12.30,1684741159.984375
-14.77,1684741160.0
-17.54,1684741160.015625
-20.50,1684741160.03125
-23.34,1684741160.046875
-25.58,1684741160.0625
-26.61,1684741160.078125
-25.93,1684741160.09375
-23.34,1684741160.109375
-19.01,1684741160.125
-13.48,1684741160.140625
-7.48,1684741160.15625
-1.65,1684741160.171875
3.55,1684741160.1875
7.94,1684741160.203125
11.54,1684741160.21875
14.45,1684741160.234375
16.75,1684741160.25
18.45,1684741160.265625
19.53,1684741160.28125
19.96,1684741160.296875
19.74,1684741160.3125
18.96,1684741160.328125
17.78,1684741160.34375
16.41,1684741160.359375
15.04,1684741160.375
13.77,1684741160.390625
12.63,1684741160.40625
11.57,1684741160.421875
10.52,1684741160.4375
9.40,1684741160.453125
8.16,1684741160.46875
6.72,1684741160.484375
5.02,1684741160.5
3.03,1684741160.515625
0.80,1684741160.53125
-1.54,1684741160.546875
-3.83,1684741160.5625
-5.93,1684741160.578125
-7.83,1684741160.59375
-9.66,1684741160.609375
-11.58,1684741160.625
-13.77,1684741160.640625
-16.31,1684741160.65625
-19.14,1684741160.671875
-21.99,1684741160.6875
-24.45,1684741160.703125
-25.98,1684741160.71875
-26.08,1684741160.734375
-24.44,1684741160.75
-21.05,1684741160.765625
-16.26,1684741160.78125
-10.67,1684741160.796875
-4.89,1684741160.8125
0.58,1684741160.828125
5.47,1684741160.84375
9.68,1684741160.859375
13.21,1684741160.875
16.01,1684741160.890625
18.07,1684741160.90625
19.32,1684741160.921875
19.78,1684741160.9375
19.54,1684741160.953125
18.77,1684741160.96875
17.68,1684741160.984375
16.45,1684741161.0
15.27,1684741161.015625
14.24,1684741161.03125
13.39,1684741161.046875
12.63,1684741161.0625
11.86,1684741161.078125
10.98,1684741161.09375
9.95,1684741161.109375
8.78,1684741161.125
7.48,1684741161.140625
5.97,1684741161.15625
4.14,1684741161.171875
1.92,1684741161.1875
-0.67,1684741161.203125
-3.41,1684741161.21875
-6.04,1684741161.234375
-8.32,1684741161.25
-10.24,1684741161.265625
-11.98,1684741161.28125
-13.89,1684741161.296875
-16.23,1684741161.3125
-19.06,1684741161.328125
-22.11,1684741161.34375
-24.83,1684741161.359375
-26.59,1684741161.375
-26.85,1684741161.390625
-25.37,1684741161.40625
-22.22,1684741161.421875
-17.79,1684741161.4375
-12.60,1684741161.453125
-7.16,1684741161.46875
-1.88,1684741161.484375
2.94,1684741161.5
7.17,1684741161.515625
10.70,1684741161.53125
13.49,1684741161.546875
15.48,1684741161.5625
16.67,1684741161.578125
17.12,1684741161.59375
16.96,1684741161.609375
16.36,1684741161.625
15.51,1684741161.640625
14.52,1684741161.65625
13.46,1684741161.671875
12.33,1684741161.6875
11.16,1684741161.703125
10.01,1684741161.71875
8.97,1684741161.734375
8.11,1684741161.75
7.40,1684741161.765625
6.68,1684741161.78125
5.71,1684741161.796875
4.30,1684741161.8125
2.44,1684741161.828125
0.23,1684741161.84375
-2.08,1684741161.859375
-4.27,1684741161.875
-6.24,1684741161.890625
-7.97,1684741161.90625
-9.52,1684741161.921875
-11.02,1684741161.9375
-12.60,1684741161.953125
-14.41,1684741161.96875
-16.53,1684741161.984375
-18.87,1684741162.0
-21.11,1684741162.015625
-22.73,1684741162.03125
-23.15,1684741162.046875
-21.93,1684741162.0625
-19.01,1684741162.078125
-14.66,1684741162.09375
-9.48,1684741162.109375
-4.13,1684741162.125
0.84,1684741162.140625
5.08,1684741162.15625
8.50,1684741162.171875
11.12,1684741162.1875
13.05,1684741162.203125
14.41,1684741162.21875
15.26,1684741162.234375
15.63,1684741162.25
15.58,1684741162.265625
15.17,1684741162.28125
14.53,1684741162.296875
13.77,1684741162.3125
12.96,1684741162.328125
12.10,1684741162.34375
11.12,1684741162.359375
9.97,1684741162.375
8.69,1684741162.390625
7.38,1684741162.40625
6.19,1684741162.421875
5.15,1684741162.4375
4.14,1684741162.453125
2.94,1684741162.46875
1.35,1684741162.484375
-0.69,1684741162.5
-3.04,1684741162.515625
-5.40,1684741162.53125
-7.49,1684741162.546875
-9.19,1684741162.5625
-10.61,1684741162.578125
-12.02,1684741162.59375
-13.71,1684741162.609375
-15.86,1684741162.625
-18.45,1684741162.640625
-21.22,1684741162.65625
-23.75,1684741162.671875
-25.55,1684741162.6875
-26.16,1684741162.703125
-25.29,1684741162.71875
-22.85,1684741162.734375
-19.02,1684741162.75
-14.22,1684741162.765625
-8.93,1684741162.78125
-3.66,1684741162.796875
1.25,1684741162.8125
5.61,1684741162.828125
9.34,1684741162.84375
12.46,1684741162.859375
14.98,1684741162.875
16.86,1684741162.890625
18.07,1684741162.90625
18.56,1684741162.921875
18.37,1684741162.9375
17.58,1684741162.953125
16.40,1684741162.96875
15.08,1684741162.984375
13.89,1684741163.0
12.99,1684741163.015625
12.40,1684741163.03125
11.98,1684741163.046875
11.52,1684741163.0625
10.81,1684741163.078125
9.74,1684741163.09375
8.33,1684741163.109375
6.63,1684741163.125
4.76,1684741163.140625
2.74,1684741163.15625
0.61,1684741163.171875
-1.58,1684741163.1875
-3.73,1684741163.203125
-5.70,1684741163.21875
-7.41,1684741163.234375
-8.91,1684741163.25
-10.39,1684741163.265625
-12.10,1684741163.28125
-14.25,1684741163.296875
-16.90,1684741163.3125
-19.87,1684741163.328125
-22.76,1684741163.34375
-25.02,1684741163.359375
-26.11,1684741163.375
-25.62,1684741163.390625
-23.40,1684741163.40625
-19.63,1684741163.421875
-14.72,1684741163.4375
-9.22,1684741163.453125
-3.65,1684741163.46875
1.57,1684741163.484375
6.19,1684741163.5
10.13,1684741163.515625
13.33,1684741163.53125
15.77,1684741163.546875
17.42,1684741163.5625
18.28,1684741163.578125
18.45,1684741163.59375
18.05,1684741163.609375
17.29,1684741163.625
16.37,1684741163.640625
15.41,1684741163.65625
14.47,1684741163.671875
13.53,1684741163.6875
12.56,1684741163.703125
11.54,1684741163.71875
10.51,1684741163.734375
9.54,1684741163.75
8.62,1684741163.765625
7.70,1684741163.78125
6.66,1684741163.796875
5.37,1684741163.8125
3.77,1684741163.828125
1.85,1684741163.84375
-0.27,1684741163.859375
-2.47,1684741163.875
-4.62,1684741163.890625
-6.66,1684741163.90625
-8.61,1684741163.921875
-10.53,1684741163.9375
-12.51,1684741163.953125
-14.65,1684741163.96875
-16.98,1684741163.984375
-19.46,1684741164.0
-21.93,1684741164.015625
-24.08,1684741164.03125
-25.45,1684741164.046875
-25.61,1684741164.0625
-24.21,1684741164.078125
-21.19,1684741164.09375
-16.78,1684741164.109375
-11.49,1684741164.125
-5.92,1684741164.140625
-0.62,1684741164.15625
4.07,1684741164.171875
8.01,1684741164.1875
11.24,1684741164.203125
13.81,1684741164.21875
15.75,1684741164.234375
17.02,1684741164.25
17.62,1684741164.265625
17.61,1684741164.28125
17.15,1684741164.296875
16.40,1684741164.3125
15.51,1684741164.328125
14.55,1684741164.34375
13.56,1684741164.359375
12.58,1684741164.375
11.69,1684741164.390625
10.92,1684741164.40625
10.28,1684741164.421875
9.62,1684741164.4375
8.74,1684741164.453125
7.48,1684741164.46875
5.78,1684741164.484375
3.80,1684741164.5
1.75,1684741164.515625
-0.14,1684741164.53125
-1.80,1684741164.546875
-3.34,1684741164.5625
-4.99,1684741164.578125
-6.98,1684741164.59375
-9.42,1684741164.609375
-12.28,1684741164.625
-15.36,1684741164.640625
-18.42,1684741164.65625
-21.17,1684741164.671875
-23.31,1684741164.6875
-24.50,1684741164.703125
-24.42,1684741164.71875
-22.83,1684741164.734375
-19.69,1684741164.75
-15.22,1684741164.765625
-9.90,1684741164.78125
-4.37,1684741164.796875
0.80,1684741164.8125
5.23,1684741164.828125
8.79,1684741164.84375
11.58,1684741164.859375
13.74,1684741164.875
15.43,1684741164.890625
16.67,1684741164.90625
17.45,1684741164.921875
17.75,1684741164.9375
17.61,1684741164.953125
17.14,1684741164.96875
16.47,1684741164.984375
15.73,1684741165.0
15.00,1684741165.015625
14.35,1684741165.03125
13.77,1684741165.046875
13.21,1684741165.0625
12.59,1684741165.078125
11.80,1684741165.09375
10.69,1684741165.109375
9.17,1684741165.125
7.23,1684741165.140625
4.93,1684741165.15625
2.44,1684741165.171875
-0.05,1684741165.1875
-2.42,1684741165.203125
-4.60,1684741165.21875
-6.61,1684741165.234375
-8.57,1684741165.25
-10.62,1684741165.265625
-12.91,1684741165.28125
-15.53,1684741165.296875
-18.45,1684741165.3125
-21.43,1684741165.328125
-24.05,1684741165.34375
-25.75,1684741165.359375
-25.98,1684741165.375
-24.40,1684741165.390625
-21.02,1684741165.40625
-16.22,1684741165.421875
-10.61,1684741165.4375
-4.88,1684741165.453125
0.46,1684741165.46875
5.08,1684741165.484375
8.87,1684741165.5
11.77,1684741165.515625
13.77,1684741165.53125
14.82,1684741165.546875
14.95,1684741165.5625
14.28,1684741165.578125
13.04,1684741165.59375
11.58,1684741165.609375
10.23,1684741165.625
9.23,1684741165.640625
8.67,1684741165.65625
8.45,1684741165.671875
8.40,1684741165.6875
8.28,1684741165.703125
7.94,1684741165.71875
7.25,1684741165.734375
6.18,1684741165.75
4.75,1684741165.765625
2.94,1684741165.78125
0.79,1684741165.796875
-1.65,1684741165.8125
-4.26,1684741165.828125
-6.88,1684741165.84375
-9.34,1684741165.859375
-11.56,1684741165.875
-13.56,1684741165.890625
-15.50,1684741165.90625
-17.61,1684741165.921875
-20.03,1684741165.9375
-22.79,1684741165.953125
-25.68,1684741165.96875
-28.32,1684741165.984375
-30.22,1684741166.0
-30.90,1684741166.015625
-30.02,1684741166.03125
-27.49,1684741166.046875
-23.48,1684741166.0625
-18.41,1684741166.078125
-12.85,1684741166.09375
-7.34,1684741166.109375
-2.27,1684741166.125
2.13,1684741166.140625
5.79,1684741166.15625
8.72,1684741166.171875
10.90,1684741166.1875
12.28,1684741166.203125
12.81,1684741166.21875
12.52,1684741166.234375
11.57,1684741166.25
10.27,1684741166.265625
8.95,1684741166.28125
7.89,1684741166.296875
7.22,1684741166.3125
6.92,1684741166.328125
6.85,1684741166.34375
6.85,1684741166.359375
6.79,1684741166.375
6.56,1684741166.390625
6.06,1684741166.40625
5.21,1684741166.421875
3.91,1684741166.4375
2.13,1684741166.453125
-0.09,1684741166.46875
-2.58,1684741166.484375
-5.15,1684741166.5
-7.63,1684741166.515625
-9.94,1684741166.53125
-12.16,1684741166.546875
-14.46,1684741166.5625
-17.01,1684741166.578125
-19.89,1684741166.59375
-22.93,1684741166.609375
-25.81,1684741166.625
-28.09,1684741166.640625
-29.35,1684741166.65625
-29.33,1684741166.671875
-27.95,1684741166.6875
-25.30,1684741166.703125
-21.59,1684741166.71875
-17.10,1684741166.734375
-12.14,1684741166.75
-6.99,1684741166.765625
-1.93,1684741166.78125
2.87,1684741166.796875
7.33,1684741166.8125
11.42,1684741166.828125
15.18,1684741166.84375
18.61,1684741166.859375
21.63,1684741166.875
24.09,1684741166.890625
25.91,1684741166.90625
27.07,1684741166.921875
27.73,1684741166.9375
28.10,1684741166.953125
28.34,1684741166.96875
28.55,1684741166.984375
28.63,1684741167.0
28.46,1684741167.015625
27.91,1684741167.03125
26.94,1684741167.046875
25.60,1684741167.0625
24.01,1684741167.078125
22.31,1684741167.09375
20.57,1684741167.109375
18.84,1684741167.125
17.07,1684741167.140625
15.21,1684741167.15625
13.19,1684741167.171875
10.98,1684741167.1875
8.58,1684741167.203125
6.02,1684741167.21875
3.37,1684741167.234375
0.72,1684741167.25
-1.78,1684741167.265625
-3.87,1684741167.28125
-5.19,1684741167.296875
-5.36,1684741167.3125
-4.04,1684741167.328125
-1.15,1684741167.34375
3.08,1684741167.359375
8.10,1684741167.375
13.20,1684741167.390625
17.72,1684741167.40625
21.22,1684741167.421875
23.65,1684741167.4375
25.27,1684741167.453125
26.52,1684741167.46875
27.83,1684741167.484375
29.44,1684741167.5
31.33,1684741167.515625
33.22,1684741167.53125
34.70,1684741167.546875
35.35,1684741167.5625
34.91,1684741167.578125
33.29,1684741167.59375
30.59,1684741167.609375
27.06,1684741167.625
23.00,1684741167.640625
18.73,1684741167.65625
14.49,1684741167.671875
10.43,1684741167.6875
6.55,1684741167.703125
2.75,1684741167.71875
-1.13,1684741167.734375
-5.20,1684741167.75
-9.49,1684741167.765625
-13.91,1684741167.78125
-18.28,1684741167.796875
-22.44,1684741167.8125
-26.31,1684741167.828125
-29.89,1684741167.84375
-33.33,1684741167.859375
-36.78,1684741167.875
-40.33,1684741167.890625
-43.89,1684741167.90625
-47.12,1684741167.921875
-49.56,1684741167.9375
-50.71,1684741167.953125
-50.24,1684741167.96875
-48.10,1684741167.984375
-44.46,1684741168.0
-39.68,1684741168.015625
-34.18,1684741168.03125
-28.36,1684741168.046875
-22.66,1684741168.0625
-17.51,1684741168.078125
-13.33,1684741168.09375
-10.47,1684741168.109375
-9.03,1684741168.125
-8.81,1684741168.140625
-9.37,1684741168.15625
-10.11,1684741168.171875
-10.51,1684741168.1875
-10.17,1684741168.203125
-8.91,1684741168.21875
-6.71,1684741168.234375
-3.70,1684741168.25
-0.03,1684741168.265625
4.11,1684741168.28125
8.45,1684741168.296875
12.65,1684741168.3125
16.39,1684741168.328125
19.43,1684741168.34375
21.68,1684741168.359375
23.18,1684741168.375
24.08,1684741168.390625
24.59,1684741168.40625
24.89,1684741168.421875
25.14,1684741168.4375
25.35,1684741168.453125
25.43,1684741168.46875
25.17,1684741168.484375
24.19,1684741168.5
22.03,1684741168.515625
18.41,1684741168.53125
13.55,1684741168.546875
8.24,1684741168.5625
3.66,1684741168.578125
0.88,1684741168.59375
0.48,1684741168.609375
2.61,1684741168.625
6.68,1684741168.640625
11.57,1684741168.65625
16.22,1684741168.671875
19.95,1684741168.6875
22.50,1684741168.703125
23.94,1684741168.71875
24.13,1684741168.734375
22.97,1684741168.75
20.86,1684741168.765625
18.17,1684741168.78125
15.11,1684741168.796875
12.03,1684741168.8125
9.31,1684741168.828125
7.25,1684741168.84375
5.93,1684741168.859375
4.80,1684741168.875
3.20,1684741168.890625
1.40,1684741168.90625
-0.34,1684741168.921875
-2.13,1684741168.9375
-4.03,1684741168.953125
-6.02,1684741168.96875
-8.08,1684741168.984375
-10.14,1684741169.0
-12.83,1684741169.015625
-16.88,1684741169.03125
-21.94,1684741169.046875
-27.85,1684741169.0625
-34.89,1684741169.078125
-43.06,1684741169.09375
-51.96,1684741169.109375
-60.74,1684741169.125
-65.21,1684741169.140625
-62.50,1684741169.15625
-57.65,1684741169.171875
-53.61,1684741169.1875
-49.66,1684741169.203125
-45.63,1684741169.21875
-41.06,1684741169.234375
-35.12,1684741169.25
-26.72,1684741169.265625
-15.08,1684741169.28125
-0.87,1684741169.296875
14.39,1684741169.3125
29.92,1684741169.328125
44.71,1684741169.34375
57.43,1684741169.359375
66.61,1684741169.375
70.04,1684741169.390625
66.10,1684741169.40625
54.92,1684741169.421875
37.94,1684741169.4375
17.73,1684741169.453125
-2.19,1684741169.46875
-19.13,1684741169.484375
-31.97,1684741169.5
-40.61,1684741169.515625
-45.54,1684741169.53125
-47.08,1684741169.546875
-45.31,1684741169.5625
-41.05,1684741169.578125
-35.54,1684741169.59375
-29.98,1684741169.609375
-26.06,1684741169.625
-25.97,1684741169.640625
-31.47,1684741169.65625
-42.80,1684741169.671875
-58.35,1684741169.6875
-72.75,1684741169.703125
-79.98,1684741169.71875
-74.96,1684741169.734375
-55.42,1684741169.75
-23.35,1684741169.765625
15.30,1684741169.78125
53.02,1684741169.796875
80.89,1684741169.8125
94.49,1684741169.828125
94.35,1684741169.84375
84.02,1684741169.859375
68.11,1684741169.875
50.74,1684741169.890625
34.70,1684741169.90625
21.55,1684741169.921875
12.05,1684741169.9375
6.28,1684741169.953125
4.14,1684741169.96875
4.83,1684741169.984375
6.81,1684741170.0
8.41,1684741170.015625
8.40,1684741170.03125
6.09,1684741170.046875
1.60,1684741170.0625
-4.26,1684741170.078125
-10.19,1684741170.09375
-14.50,1684741170.109375
-15.93,1684741170.125
-14.35,1684741170.140625
-10.61,1684741170.15625
-6.29,1684741170.171875
-2.83,1684741170.1875
-1.14,1684741170.203125
-1.29,1684741170.21875
-2.70,1684741170.234375
-4.27,1684741170.25
-5.09,1684741170.265625
-4.82,1684741170.28125
-3.72,1684741170.296875
-2.42,1684741170.3125
-1.61,1684741170.328125
-1.70,1684741170.34375
-2.72,1684741170.359375
-4.27,1684741170.375
-5.63,1684741170.390625
-6.09,1684741170.40625
-5.25,1684741170.421875
-3.11,1684741170.4375
-0.09,1684741170.453125
3.13,1684741170.46875
5.83,1684741170.484375
7.46,1684741170.5
7.77,1684741170.515625
6.86,1684741170.53125
5.03,1684741170.546875
2.67,1684741170.5625
0.12,1684741170.578125
-2.42,1684741170.59375
-4.84,1684741170.609375
-7.10,1684741170.625
-9.16,1684741170.640625
-10.99,1684741170.65625
-12.52,1684741170.671875
-13.70,1684741170.6875
-14.54,1684741170.703125
-15.04,1684741170.71875
-15.19,1684741170.734375
-15.28,1684741170.75
-15.37,1684741170.765625
-15.43,1684741170.78125
-15.44,1684741170.796875
-15.40,1684741170.8125
-15.37,1684741170.828125
-15.40,1684741170.84375
-15.54,1684741170.859375
-15.80,1684741170.875
-16.21,1684741170.890625
-16.82,1684741170.90625
-17.72,1684741170.921875
-18.94,1684741170.9375
-20.30,1684741170.953125
-21.33,1684741170.96875
-21.43,1684741170.984375
-19.97,1684741171.0
-16.68,1684741171.015625
-11.67,1684741171.03125
-5.45,1684741171.046875
1.29,1684741171.0625
7.89,1684741171.078125
13.93,1684741171.09375
19.23,1684741171.109375
23.73,1684741171.125
27.40,1684741171.140625
30.14,1684741171.15625
31.84,1684741171.171875
32.46,1684741171.1875
32.06,1684741171.203125
30.84,1684741171.21875
29.03,1684741171.234375
26.89,1684741171.25
24.57,1684741171.265625
22.13,1684741171.28125
19.56,1684741171.296875
16.80,1684741171.3125
13.86,1684741171.328125
10.78,1684741171.34375
7.72,1684741171.359375
4.80,1684741171.375
2.14,1684741171.390625
-0.20,1684741171.40625
-2.27,1684741171.421875
-4.16,1684741171.4375
-6.00,1684741171.453125
-7.93,1684741171.46875
-10.05,1684741171.484375
-12.38,1684741171.5
-14.89,1684741171.515625
-17.44,1684741171.53125
-19.82,1684741171.546875
-21.70,1684741171.5625
-22.73,1684741171.578125
-22.57,1684741171.59375
-20.98,1684741171.609375
-17.84,1684741171.625
-13.27,1684741171.640625
-7.58,1684741171.65625
-1.27,1684741171.671875
5.06,1684741171.6875
10.86,1684741171.703125
15.76,1684741171.71875
19.65,1684741171.734375
22.60,1684741171.75
24.80,1684741171.765625
26.33,1684741171.78125
27.15,1684741171.796875
27.10,1684741171.8125
26.02,1684741171.828125
23.93,1684741171.84375
21.08,1684741171.859375
17.87,1684741171.875
14.69,1684741171.890625
11.84,1684741171.90625
9.40,1684741171.921875
7.26,1684741171.9375
5.27,1684741171.953125
3.30,1684741171.96875
1.35,1684741171.984375
-0.56,1684741172.0
-2.29,1684741172.015625
-3.75,1684741172.03125
-4.83,1684741172.046875
-5.51,1684741172.0625
-5.84,1684741172.078125
-5.99,1684741172.09375
-6.21,1684741172.109375
-6.76,1684741172.125
-7.84,1684741172.140625
-9.52,1684741172.15625
-11.63,1684741172.171875
-13.84,1684741172.1875
-15.65,1684741172.203125
-16.55,1684741172.21875
-16.11,1684741172.234375
-14.08,1684741172.25
-10.46,1684741172.265625
-5.57,1684741172.28125
0.11,1684741172.296875
5.95,1684741172.3125
11.40,1684741172.328125
16.08,1684741172.34375
19.87,1684741172.359375
22.81,1684741172.375
25.02,1684741172.390625
26.60,1684741172.40625
27.59,1684741172.421875
27.97,1684741172.4375
27.73,1684741172.453125
26.93,1684741172.46875
25.64,1684741172.484375
23.99,1684741172.5
22.06,1684741172.515625
19.90,1684741172.53125
17.51,1684741172.546875
14.89,1684741172.5625
12.09,1684741172.578125
9.19,1684741172.59375
6.36,1684741172.609375
3.77,1684741172.625
1.53,1684741172.640625
-0.33,1684741172.65625
-1.91,1684741172.671875
-3.39,1684741172.6875
-5.03,1684741172.703125
-7.06,1684741172.71875
-9.63,1684741172.734375
-12.73,1684741172.75
-16.22,1684741172.765625
-19.80,1684741172.78125
-23.10,1684741172.796875
-25.69,1684741172.8125
-27.16,1684741172.828125
-27.17,1684741172.84375
-25.56,1684741172.859375
-22.38,1684741172.875
-17.90,1684741172.890625
-12.55,1684741172.90625
-6.85,1684741172.921875
-1.29,1684741172.9375
3.72,1684741172.953125
7.94,1684741172.96875
11.22,1684741172.984375
13.47,1684741173.0
14.67,1684741173.015625
14.85,1684741173.03125
14.15,1684741173.046875
12.80,1684741173.0625
11.08,1684741173.078125
9.33,1684741173.09375
7.79,1684741173.109375
6.53,1684741173.125
5.48,1684741173.140625
4.40,1684741173.15625
3.01,1684741173.171875
1.10,1684741173.1875
-1.41,1684741173.203125
-4.35,1684741173.21875
-7.38,1684741173.234375
-10.11,1684741173.25
-12.16,1684741173.265625
-13.37,1684741173.28125
-13.79,1684741173.296875
-13.67,1684741173.3125
-13.37,1684741173.328125
-13.21,1684741173.34375
-13.39,1684741173.359375
-13.92,1684741173.375
-14.56,1684741173.390625
-14.92,1684741173.40625
-14.49,1684741173.421875
-12.82,1684741173.4375
-9.64,1684741173.453125
-5.03,1684741173.46875
0.65,1684741173.484375
6.81,1684741173.5
12.80,1684741173.515625
18.09,1684741173.53125
22.36,1684741173.546875
25.48,1684741173.5625
27.43,1684741173.578125
28.27,1684741173.59375
28.06,1684741173.609375
26.91,1684741173.625
24.98,1684741173.640625
22.54,1684741173.65625
19.87,1684741173.671875
17.28,1684741173.6875
15.02,1684741173.703125
13.15,1684741173.71875
11.59,1684741173.734375
10.15,1684741173.75
8.60,1684741173.765625
6.80,1684741173.78125
4.75,1684741173.796875
2.57,1684741173.8125
0.42,1684741173.828125
-1.62,1684741173.84375
-3.55,1684741173.859375
-5.48,1684741173.875
-7.51,1684741173.890625
-9.69,1684741173.90625
-12.05,1684741173.921875
-14.58,1684741173.9375
-17.23,1684741173.953125
-19.94,1684741173.96875
-22.46,1684741173.984375
-24.40,1684741174.0
-25.22,1684741174.015625
-24.45,1684741174.03125
-21.87,1684741174.046875
-17.66,1684741174.0625
-12.35,1684741174.078125
-6.66,1684741174.09375
-1.28,1684741174.109375
3.29,1684741174.125
6.86,1684741174.140625
9.44,1684741174.15625
11.13,1684741174.171875
12.01,1684741174.1875
12.13,1684741174.203125
11.51,1684741174.21875
10.25,1684741174.234375
8.47,1684741174.25
6.39,1684741174.265625
4.24,1684741174.28125
2.25,1684741174.296875
0.62,1684741174.3125
-0.53,1684741174.328125
-1.14,1684741174.34375
-1.24,1684741174.359375
-0.96,1684741174.375
-0.48,1684741174.390625
-0.01,1684741174.40625
0.34,1684741174.421875
0.53,1684741174.4375
0.61,1684741174.453125
0.67,1684741174.46875
0.76,1684741174.484375
0.88,1684741174.5
0.96,1684741174.515625
0.86,1684741174.53125
0.40,1684741174.546875
-0.61,1684741174.5625
-2.30,1684741174.578125
-4.60,1684741174.59375
-7.19,1684741174.609375
-9.49,1684741174.625
-10.75,1684741174.640625
-10.40,1684741174.65625
-8.17,1684741174.671875
-4.29,1684741174.6875
0.58,1684741174.703125
5.65,1684741174.71875
10.29,1684741174.734375
14.17,1684741174.75
17.28,1684741174.765625
19.76,1684741174.78125
21.69,1684741174.796875
23.06,1684741174.8125
23.72,1684741174.828125
23.58,1684741174.84375
22.62,1684741174.859375
20.96,1684741174.875
18.73,1684741174.890625
16.04,1684741174.90625
12.98,1684741174.921875
9.67,1684741174.9375
6.34,1684741174.953125
3.29,1684741174.96875
0.80,1684741174.984375
-0.98,1684741175.0
-2.08,1684741175.015625
-2.69,1684741175.03125
-3.03,1684741175.046875
-3.24,1684741175.0625
-3.41,1684741175.078125
-3.57,1684741175.09375
-3.76,1684741175.109375
-4.09,1684741175.125
-4.66,1684741175.140625
-5.56,1684741175.15625
-6.89,1684741175.171875
-8.66,1684741175.1875
-10.90,1684741175.203125
-13.51,1684741175.21875
-16.22,1684741175.234375
-18.64,1684741175.25
-20.22,1684741175.265625
-20.46,1684741175.28125
-19.04,1684741175.296875
-15.93,1684741175.3125
-11.38,1684741175.328125
-5.83,1684741175.34375
0.14,1684741175.359375
5.95,1684741175.375
11.07,1684741175.390625
15.10,1684741175.40625
17.81,1684741175.421875
19.23,1684741175.4375
19.58,1684741175.453125
19.18,1684741175.46875
18.33,1684741175.484375
17.21,1684741175.5
15.85,1684741175.515625
14.26,1684741175.53125
12.50,1684741175.546875
10.73,1684741175.5625
9.12,1684741175.578125
7.76,1684741175.59375
6.58,1684741175.609375
5.44,1684741175.625
4.19,1684741175.640625
2.78,1684741175.65625
1.29,1684741175.671875
-0.18,1684741175.6875
-1.56,1684741175.703125
-2.89,1684741175.71875
-4.26,1684741175.734375
-5.66,1684741175.75
-7.01,1684741175.765625
-8.11,1684741175.78125
-8.79,1684741175.796875
-9.03,1684741175.8125
-8.94,1684741175.828125
-8.72,1684741175.84375
-8.48,1684741175.859375
-8.16,1684741175.875
-7.52,1684741175.890625
-6.25,1684741175.90625
-4.06,1684741175.921875
-0.87,1684741175.9375
3.16,1684741175.953125
7.66,1684741175.96875
12.06,1684741175.984375
15.80,1684741176.0
18.39,1684741176.015625
19.59,1684741176.03125
19.45,1684741176.046875
18.30,1684741176.0625
16.61,1684741176.078125
14.80,1684741176.09375
13.13,1684741176.109375
11.59,1684741176.125
10.01,1684741176.140625
8.22,1684741176.15625
6.12,1684741176.171875
3.81,1684741176.1875
1.52,1684741176.203125
-0.51,1684741176.21875
-2.10,1684741176.234375
-3.19,1684741176.25
-3.85,1684741176.265625
-4.19,1684741176.28125
-4.31,1684741176.296875
-4.34,1684741176.3125
-4.42,1684741176.328125
-4.70,1684741176.34375
-5.36,1684741176.359375
-6.52,1684741176.375
-8.19,1684741176.390625
-10.28,1684741176.40625
-12.59,1684741176.421875
-14.90,1684741176.4375
-17.03,1684741176.453125
-18.89,1684741176.46875
-20.51,1684741176.484375
-21.99,1684741176.5
-23.40,1684741176.515625
-24.70,1684741176.53125
-25.66,1684741176.546875
-25.91,1684741176.5625
-25.03,1684741176.578125
-22.64,1684741176.59375
-18.61,1684741176.609375
-13.08,1684741176.625
-6.51,1684741176.640625
0.42,1684741176.65625
7.01,1684741176.671875
12.69,1684741176.6875
17.16,1684741176.703125
20.38,1684741176.71875
22.55,1684741176.734375
23.98,1684741176.75
24.87,1684741176.765625
25.24,1684741176.78125
25.01,1684741176.796875
24.06,1684741176.8125
22.39,1684741176.828125
20.14,1684741176.84375
17.64,1684741176.859375
15.34,1684741176.875
13.63,1684741176.890625
12.65,1684741176.90625
12.29,1684741176.921875
12.18,1684741176.9375
11.91,1684741176.953125
11.14,1684741176.96875
9.73,1684741176.984375
7.81,1684741177.0
5.79,1684741177.015625
4.17,1684741177.03125
3.21,1684741177.046875
2.76,1684741177.0625
2.45,1684741177.078125
1.79,1684741177.09375
0.48,1684741177.109375
-1.58,1684741177.125
-4.12,1684741177.140625
-6.49,1684741177.15625
-8.12,1684741177.171875
-8.92,1684741177.1875
-9.36,1684741177.203125
-9.93,1684741177.21875
-10.74,1684741177.234375
-11.38,1684741177.25
-11.48,1684741177.265625
-11.17,1684741177.28125
-11.36,1684741177.296875
-13.91,1684741177.3125
-21.00,1684741177.328125
-33.91,1684741177.34375
-51.52,1684741177.359375
-70.04,1684741177.375
-84.30,1684741177.390625
-90.05,1684741177.40625
-85.30,1684741177.421875
-70.40,1684741177.4375
-47.58,1684741177.453125
-20.24,1684741177.46875
7.95,1684741177.484375
33.70,1684741177.5
54.16,1684741177.515625
66.61,1684741177.53125
68.42,1684741177.546875
56.61,1684741177.5625
31.53,1684741177.578125
-0.90,1684741177.59375
-31.48,1684741177.609375
-53.27,1684741177.625
-64.89,1684741177.640625
-69.34,1684741177.65625
-71.05,1684741177.671875
-73.34,1684741177.6875
-76.60,1684741177.703125
-78.02,1684741177.71875
-73.26,1684741177.734375
-58.94,1684741177.75
-34.58,1684741177.765625
-3.23,1684741177.78125
28.77,1684741177.796875
56.15,1684741177.8125
74.39,1684741177.828125
81.87,1684741177.84375
80.82,1684741177.859375
75.88,1684741177.875
71.44,1684741177.890625
69.42,1684741177.90625
67.85,1684741177.921875
64.73,1684741177.9375
58.07,1684741177.953125
47.48,1684741177.96875
35.18,1684741177.984375
24.90,1684741178.0
19.33,1684741178.015625
18.61,1684741178.03125
19.82,1684741178.046875
19.67,1684741178.0625
16.33,1684741178.078125
9.75,1684741178.09375
0.96,1684741178.109375
-8.69,1684741178.125
-17.96,1684741178.140625
-26.35,1684741178.15625
-33.98,1684741178.171875
-41.17,1684741178.1875
-47.95,1684741178.203125
-53.91,1684741178.21875
-58.48,1684741178.234375
-60.71,1684741178.25
-59.23,1684741178.265625
-52.68,1684741178.28125
-40.58,1684741178.296875
-24.17,1684741178.3125
-6.52,1684741178.328125
8.94,1684741178.34375
19.84,1684741178.359375
25.85,1684741178.375
28.67,1684741178.390625
30.73,1684741178.40625
33.49,1684741178.421875
36.66,1684741178.4375
38.12,1684741178.453125
35.41,1684741178.46875
27.93,1684741178.484375
17.29,1684741178.5
6.65,1684741178.515625
-0.83,1684741178.53125
-3.45,1684741178.546875
-1.83,1684741178.5625
1.47,1684741178.578125
3.16,1684741178.59375
0.37,1684741178.609375
-7.58,1684741178.625
-19.32,1684741178.640625
-32.35,1684741178.65625
-44.03,1684741178.671875
-52.46,1684741178.6875
-56.87,1684741178.703125
-57.35,1684741178.71875
-52.17,1684741178.734375
-42.77,1684741178.75
-31.02,1684741178.765625
-19.03,1684741178.78125
-9.09,1684741178.796875
-3.29,1684741178.8125
-2.75,1684741178.828125
-7.24,1684741178.84375
-14.88,1684741178.859375
-22.73,1684741178.875
-28.17,1684741178.890625
-29.28,1684741178.90625
-25.70,1684741178.921875
-18.63,1684741178.9375
-10.35,1684741178.953125
-2.34,1684741178.96875
4.46,1684741178.984375
9.97,1684741179.0
14.68,1684741179.015625
18.84,1684741179.03125
22.35,1684741179.046875
24.38,1684741179.0625
23.68,1684741179.078125
19.43,1684741179.09375
11.88,1684741179.109375
2.22,1684741179.125
-7.92,1684741179.140625
-17.38,1684741179.15625
-26.10,1684741179.171875
-34.50,1684741179.1875
-43.01,1684741179.203125
-51.32,1684741179.21875
-58.21,1684741179.234375
-61.97,1684741179.25
-61.29,1684741179.265625
-55.41,1684741179.28125
-45.13,1684741179.296875
-32.53,1684741179.3125
-19.90,1684741179.328125
-9.08,1684741179.34375
-0.95,1684741179.359375
4.50,1684741179.375
7.85,1684741179.390625
9.80,1684741179.40625
10.90,1684741179.421875
11.36,1684741179.4375
11.28,1684741179.453125
10.79,1684741179.46875
10.13,1684741179.484375
9.72,1684741179.5
9.92,1684741179.515625
10.91,1684741179.53125
12.57,1684741179.546875
14.49,1684741179.5625
16.11,1684741179.578125
16.92,1684741179.59375
16.75,1684741179.609375
15.85,1684741179.625
15.03,1684741179.640625
15.24,1684741179.65625
17.19,1684741179.671875
21.02,1684741179.6875
26.28,1684741179.703125
31.96,1684741179.71875
36.90,1684741179.734375
40.14,1684741179.75
41.27,1684741179.765625
40.92,1684741179.78125
40.14,1684741179.796875
39.90,1684741179.8125
40.69,1684741179.828125
42.44,1684741179.84375
44.58,1684741179.859375
46.31,1684741179.875
46.94,1684741179.890625
46.16,1684741179.90625
44.87,1684741179.921875
44.35,1684741179.9375
45.75,1684741179.953125
49.86,1684741179.96875
57.02,1684741179.984375
67.06,1684741180.0
79.29,1684741180.015625
92.28,1684741180.03125
103.86,1684741180.046875
112.22,1684741180.0625
115.44,1684741180.078125
112.11,1684741180.09375
102.10,1684741180.109375
87.09,1684741180.125
70.38,1684741180.140625
55.91,1684741180.15625
46.82,1684741180.171875
38.83,1684741180.1875
29.03,1684741180.203125
16.10,1684741180.21875
0.63,1684741180.234375
-15.75,1684741180.25
-31.69,1684741180.265625
-46.61,1684741180.28125
-60.52,1684741180.296875
-73.69,1684741180.3125
-85.62,1684741180.328125
-95.67,1684741180.34375
-102.47,1684741180.359375
-104.98,1684741180.375
-103.22,1684741180.390625
-98.39,1684741180.40625
-92.36,1684741180.421875
-86.95,1684741180.4375
-83.45,1684741180.453125
-82.05,1684741180.46875
-81.62,1684741180.484375
-80.36,1684741180.5
-77.01,1684741180.515625
-71.44,1684741180.53125
-64.61,1684741180.546875
-58.05,1684741180.5625
-53.22,1684741180.578125
-51.10,1684741180.59375
-51.72,1684741180.609375
-53.59,1684741180.625
-53.96,1684741180.640625
-50.28,1684741180.65625
-41.13,1684741180.671875
-26.66,1684741180.6875
-8.44,1684741180.703125
11.10,1684741180.71875
29.29,1684741180.734375
44.05,1684741180.75
54.71,1684741180.765625
62.36,1684741180.78125
68.65,1684741180.796875
75.05,1684741180.8125
82.11,1684741180.828125
89.41,1684741180.84375
95.61,1684741180.859375
98.57,1684741180.875
96.11,1684741180.890625
81.45,1684741180.90625
50.96,1684741180.921875
6.17,1684741180.9375
-46.21,1684741180.953125
-97.62,1684741180.96875
-140.50,1684741180.984375
-169.16,1684741181.0
-180.05,1684741181.015625
-174.42,1684741181.03125
-153.82,1684741181.046875
-121.16,1684741181.0625
-81.64,1684741181.078125
-41.59,1684741181.09375
-6.55,1684741181.109375
20.48,1684741181.125
39.85,1684741181.140625
50.94,1684741181.15625
55.35,1684741181.171875
55.61,1684741181.1875
54.34,1684741181.203125
53.34,1684741181.21875
53.60,1684741181.234375
55.32,1684741181.25
58.22,1684741181.265625
61.74,1684741181.28125
65.12,1684741181.296875
68.09,1684741181.3125
70.68,1684741181.328125
73.26,1684741181.34375
76.27,1684741181.359375
80.00,1684741181.375
84.37,1684741181.390625
88.90,1684741181.40625
92.76,1684741181.421875
94.90,1684741181.4375
94.62,1684741181.453125
91.68,1684741181.46875
86.31,1684741181.484375
79.20,1684741181.5
71.26,1684741181.515625
63.27,1684741181.53125
55.62,1684741181.546875
48.37,1684741181.5625
41.35,1684741181.578125
34.58,1684741181.59375
28.23,1684741181.609375
22.54,1684741181.625
17.77,1684741181.640625
14.19,1684741181.65625
11.80,1684741181.671875
10.29,1684741181.6875
9.20,1684741181.703125
8.03,1684741181.71875
6.38,1684741181.734375
4.02,1684741181.75
0.92,1684741181.765625
-2.63,1684741181.78125
-6.13,1684741181.796875
-9.45,1684741181.8125
-12.91,1684741181.828125
-17.16,1684741181.84375
-22.77,1684741181.859375
-29.96,1684741181.875
-38.73,1684741181.890625
-49.20,1684741181.90625
-61.82,1684741181.921875
-75.56,1684741181.9375
-88.58,1684741181.953125
-98.78,1684741181.96875
-104.67,1684741181.984375
-105.69,1684741182.0
-102.07,1684741182.015625
-94.72,1684741182.03125
-85.18,1684741182.046875
-75.14,1684741182.0625
-65.71,1684741182.078125
-57.39,1684741182.09375
-50.09,1684741182.109375
-43.52,1684741182.125
-37.62,1684741182.140625
-32.62,1684741182.15625
-28.88,1684741182.171875
-26.60,1684741182.1875
-25.46,1684741182.203125
-24.64,1684741182.21875
-23.40,1684741182.234375
-21.35,1684741182.25
-18.66,1684741182.265625
-15.93,1684741182.28125
-13.72,1684741182.296875
-12.31,1684741182.3125
-11.58,1684741182.328125
-11.24,1684741182.34375
-11.18,1684741182.359375
-11.71,1684741182.375
-12.88,1684741182.390625
-13.87,1684741182.40625
-12.78,1684741182.421875
-7.43,1684741182.4375
3.13,1684741182.453125
17.37,1684741182.46875
31.38,1684741182.484375
40.99,1684741182.5
43.14,1684741182.515625
37.69,1684741182.53125
27.41,1684741182.546875
16.41,1684741182.5625
8.01,1684741182.578125
3.27,1684741182.59375
1.06,1684741182.609375
-0.53,1684741182.625
-2.66,1684741182.640625
-5.08,1684741182.65625
-6.58,1684741182.671875
-5.70,1684741182.6875
-2.56,1684741182.703125
1.72,1684741182.71875
5.72,1684741182.734375
8.52,1684741182.75
10.24,1684741182.765625
11.82,1684741182.78125
14.20,1684741182.796875
17.41,1684741182.8125
20.27,1684741182.828125
20.88,1684741182.84375
17.87,1684741182.859375
11.59,1684741182.875
4.55,1684741182.890625
0.36,1684741182.90625
1.52,1684741182.921875
7.46,1684741182.9375
14.32,1684741182.953125
16.48,1684741182.96875
9.61,1684741182.984375
-6.59,1684741183.0
-27.76,1684741183.015625
-47.03,1684741183.03125
-58.45,1684741183.046875
-59.74,1684741183.0625
-52.72,1684741183.078125
-41.44,1684741183.09375
-29.66,1684741183.109375
-19.05,1684741183.125
-9.28,1684741183.140625
0.54,1684741183.15625
10.35,1684741183.171875
19.13,1684741183.1875
25.37,1684741183.203125
28.23,1684741183.21875
28.05,1684741183.234375
26.09,1684741183.25
24.11,1684741183.265625
22.77,1684741183.28125
22.30,1684741183.296875
22.51,1684741183.3125
22.99,1684741183.328125
23.19,1684741183.34375
22.62,1684741183.359375
20.94,1684741183.375
18.25,1684741183.390625
15.15,1684741183.40625
12.48,1684741183.421875
11.04,1684741183.4375
11.08,1684741183.453125
12.03,1684741183.46875
12.79,1684741183.484375
12.26,1684741183.5
9.91,1684741183.515625
6.02,1684741183.53125
1.50,1684741183.546875
-2.63,1684741183.5625
-5.66,1684741183.578125
-7.37,1684741183.59375
-8.13,1684741183.609375
-8.56,1684741183.625
-9.15,1684741183.640625
-9.99,1684741183.65625
-10.79,1684741183.671875
-11.06,1684741183.6875
-10.43,1684741183.703125
-9.26,1684741183.71875
-8.02,1684741183.734375
-7.25,1684741183.75
-7.36,1684741183.765625
-8.36,1684741183.78125
-9.79,1684741183.796875
-10.96,1684741183.8125
-11.25,1684741183.828125
-10.47,1684741183.84375
-8.98,1684741183.859375
-7.46,1684741183.875
-6.75,1684741183.890625
-7.44,1684741183.90625
-9.69,1684741183.921875
-13.09,1684741183.9375
-16.63,1684741183.953125
-18.74,1684741183.96875
-17.52,1684741183.984375
-11.38,1684741184.0
-0.14,1684741184.015625
14.14,1684741184.03125
27.12,1684741184.046875
33.54,1684741184.0625
29.31,1684741184.078125
13.37,1684741184.09375
-11.80,1684741184.109375
-41.25,1684741184.125
-69.52,1684741184.140625
-92.11,1684741184.15625
-106.09,1684741184.171875
-109.69,1684741184.1875
-101.95,1684741184.203125
-83.06,1684741184.21875
-55.14,1684741184.234375
-22.72,1684741184.25
8.02,1684741184.265625
31.30,1684741184.28125
43.92,1684741184.296875
46.30,1684741184.3125
41.76,1684741184.328125
34.61,1684741184.34375
28.23,1684741184.359375
24.29,1684741184.375
23.04,1684741184.390625
24.14,1684741184.40625
27.12,1684741184.421875
31.46,1684741184.4375
36.19,1684741184.453125
39.92,1684741184.46875
41.24,1684741184.484375
39.36,1684741184.5
34.49,1684741184.515625
27.78,1684741184.53125
20.73,1684741184.546875
14.66,1684741184.5625
10.29,1684741184.578125
7.67,1684741184.59375
6.40,1684741184.609375
5.82,1684741184.625
5.21,1684741184.640625
3.92,1684741184.65625
1.51,1684741184.671875
-2.22,1684741184.6875
-7.34,1684741184.703125
-13.74,1684741184.71875
-21.17,1684741184.734375
-29.03,1684741184.75
-36.28,1684741184.765625
-41.45,1684741184.78125
-42.99,1684741184.796875
-39.87,1684741184.8125
-32.14,1684741184.828125
-21.17,1684741184.84375
-9.28,1684741184.859375
1.04,1684741184.875
8.07,1684741184.890625
11.46,1684741184.90625
12.18,1684741184.921875
12.00,1684741184.9375
12.58,1684741184.953125
14.90,1684741184.96875
19.08,1684741184.984375
24.66,1684741185.0
31.04,1684741185.015625
37.60,1684741185.03125
43.56,1684741185.046875
47.91,1684741185.0625
49.56,1684741185.078125
47.94,1684741185.09375
43.53,1684741185.109375
37.93,1684741185.125
33.18,1684741185.140625
30.77,1684741185.15625
30.95,1684741185.171875
32.88,1684741185.1875
35.44,1684741185.203125
38.32,1684741185.21875
42.23,1684741185.234375
48.26,1684741185.25
56.87,1684741185.265625
67.15,1684741185.28125
76.85,1684741185.296875
83.27,1684741185.3125
84.15,1684741185.328125
78.44,1684741185.34375
66.41,1684741185.359375
49.51,1684741185.375
29.98,1684741185.390625
10.57,1684741185.40625
-6.09,1684741185.421875
-18.21,1684741185.4375
-25.65,1684741185.453125
-30.07,1684741185.46875
-34.29,1684741185.484375
-40.90,1684741185.5
-51.23,1684741185.515625
-64.97,1684741185.53125
-80.63,1684741185.546875
-96.37,1684741185.5625
-110.65,1684741185.578125
-122.36,1684741185.59375
-130.40,1684741185.609375
-133.35,1684741185.625
-129.27,1684741185.640625
-117.00,1684741185.65625
-97.30,1684741185.671875
-73.12,1684741185.6875
-48.56,1684741185.703125
-27.21,1684741185.71875
-10.97,1684741185.734375
0.37,1684741185.75
8.46,1684741185.765625
15.90,1684741185.78125
24.18,1684741185.796875
32.74,1684741185.8125
39.50,1684741185.828125
42.58,1684741185.84375
41.60,1684741185.859375
37.85,1684741185.875
33.52,1684741185.890625
30.54,1684741185.90625
31.05,1684741185.921875
35.49,1684741185.9375
42.22,1684741185.953125
48.38,1684741185.96875
51.84,1684741185.984375
52.47,1684741186.0
51.90,1684741186.015625
52.37,1684741186.03125
55.69,1684741186.046875
64.34,1684741186.0625
79.57,1684741186.078125
100.68,1684741186.09375
125.35,1684741186.109375
150.75,1684741186.125
174.10,1684741186.140625
192.21,1684741186.15625
201.53,1684741186.171875
189.34,1684741186.1875
150.03,1684741186.203125
90.52,1684741186.21875
27.27,1684741186.234375
-25.17,1684741186.25
-61.69,1684741186.265625
-85.06,1684741186.28125
-100.61,1684741186.296875
-111.84,1684741186.3125
-118.83,1684741186.328125
-118.08,1684741186.34375
-107.26,1684741186.359375
-88.45,1684741186.375
-68.05,1684741186.390625
-53.30,1684741186.40625
-48.34,1684741186.421875
-52.67,1684741186.4375
-62.14,1684741186.453125
-71.38,1684741186.46875
-75.39,1684741186.484375
-72.56,1684741186.5
-65.19,1684741186.515625
-57.70,1684741186.53125
-53.69,1684741186.546875
-53.82,1684741186.5625
-56.21,1684741186.578125
-58.14,1684741186.59375
-57.61,1684741186.609375
-53.74,1684741186.625
-47.43,1684741186.640625
-41.01,1684741186.65625
-37.14,1684741186.671875
-37.48,1684741186.6875
-42.23,1684741186.703125
-50.38,1684741186.71875
-60.48,1684741186.734375
-69.76,1684741186.75
-74.93,1684741186.765625
-73.10,1684741186.78125
-62.88,1684741186.796875
-45.14,1684741186.8125
-22.77,1684741186.828125
0.36,1684741186.84375
20.80,1684741186.859375
36.30,1684741186.875
46.44,1684741186.890625
52.42,1684741186.90625
55.50,1684741186.921875
56.12,1684741186.9375
53.92,1684741186.953125
48.80,1684741186.96875
41.83,1684741186.984375
35.24,1684741187.0
31.48,1684741187.015625
32.00,1684741187.03125
36.20,1684741187.046875
41.58,1684741187.0625
45.13,1684741187.078125
44.59,1684741187.09375
39.68,1684741187.109375
32.32,1684741187.125
25.68,1684741187.140625
22.73,1684741187.15625
24.95,1684741187.171875
31.51,1684741187.1875
39.77,1684741187.203125
46.37,1684741187.21875
48.59,1684741187.234375
45.33,1684741187.25
37.23,1684741187.265625
26.12,1684741187.28125
14.14,1684741187.296875
3.15,1684741187.3125
-5.85,1684741187.328125
-13.38,1684741187.34375
-20.62,1684741187.359375
-29.19,1684741187.375
-40.62,1684741187.390625
-55.53,1684741187.40625
-72.69,1684741187.421875
-88.44,1684741187.4375
-97.06,1684741187.453125
-92.67,1684741187.46875
-71.97,1684741187.484375
-36.83,1684741187.5
4.87,1684741187.515625
41.32,1684741187.53125
61.18,1684741187.546875
58.49,1684741187.5625
35.58,1684741187.578125
2.23,1684741187.59375
-28.67,1684741187.609375
-46.65,1684741187.625
-47.81,1684741187.640625
-35.60,1684741187.65625
-17.98,1684741187.671875
-3.02,1684741187.6875
4.91,1684741187.703125
5.98,1684741187.71875
3.38,1684741187.734375
0.57,1684741187.75
-0.80,1684741187.765625
-1.23,1684741187.78125
-2.50,1684741187.796875
-5.75,1684741187.8125
-10.53,1684741187.828125
-14.92,1684741187.84375
-16.82,1684741187.859375
-15.26,1684741187.875
-11.22,1684741187.890625
-7.15,1684741187.90625
-5.65,1684741187.921875
-8.29,1684741187.9375
-14.64,1684741187.953125
-22.44,1684741187.96875
-28.56,1684741187.984375
-30.51,1684741188.0
-27.49,1684741188.015625
-20.77,1684741188.03125
-12.90,1684741188.046875
-6.55,1684741188.0625
-3.56,1684741188.078125
-4.18,1684741188.09375
-7.20,1684741188.109375
-10.62,1684741188.125
-12.65,1684741188.140625
-12.38,1684741188.15625
-9.90,1684741188.171875
-6.61,1684741188.1875
-3.59,1684741188.203125
-1.60,1684741188.21875
-0.96,1684741188.234375
-1.48,1684741188.25
-2.64,1684741188.265625
-3.82,1684741188.28125
-4.50,1684741188.296875
-4.29,1684741188.3125
-2.31,1684741188.328125
2.12,1684741188.34375
8.92,1684741188.359375
17.18,1684741188.375
25.46,1684741188.390625
32.31,1684741188.40625
36.44,1684741188.421875
37.10,1684741188.4375
34.33,1684741188.453125
30.07,1684741188.46875
26.86,1684741188.484375
26.62,1684741188.5
30.02,1684741188.515625
36.72,1684741188.53125
45.79,1684741188.546875
56.15,1684741188.5625
66.78,1684741188.578125
76.89,1684741188.59375
87.29,1684741188.609375
98.77,1684741188.625
111.41,1684741188.640625
124.53,1684741188.65625
137.24,1684741188.671875
148.70,1684741188.6875
157.67,1684741188.703125
162.14,1684741188.71875
151.74,1684741188.734375
120.86,1684741188.75
71.93,1684741188.765625
14.98,1684741188.78125
-38.15,1684741188.796875
-78.55,1684741188.8125
-101.41,1684741188.828125
-105.82,1684741188.84375
-94.45,1684741188.859375
-73.10,1684741188.875
-48.28,1684741188.890625
-26.86,1684741188.90625
-14.36,1684741188.921875
-13.17,1684741188.9375
-21.66,1684741188.953125
-35.16,1684741188.96875
-48.46,1684741188.984375
-58.29,1684741189.0
-64.03,1684741189.015625
-65.90,1684741189.03125
-64.67,1684741189.046875
-60.93,1684741189.0625
-55.19,1684741189.078125
-47.99,1684741189.09375
-40.28,1684741189.109375
-33.48,1684741189.125
-29.10,1684741189.140625
-27.88,1684741189.15625
-28.78,1684741189.171875
-29.91,1684741189.1875
-29.51,1684741189.203125
-26.80,1684741189.21875
-22.16,1684741189.234375
-16.71,1684741189.25
-11.85,1684741189.265625
-8.69,1684741189.28125
-7.63,1684741189.296875
-7.96,1684741189.3125
-8.50,1684741189.328125
-8.26,1684741189.34375
-6.92,1684741189.359375
-4.76,1684741189.375
-2.39,1684741189.390625
-0.43,1684741189.40625
0.82,1684741189.421875
1.41,1684741189.4375
1.80,1684741189.453125
2.41,1684741189.46875
3.34,1684741189.484375
4.26,1684741189.5
4.63,1684741189.515625
4.03,1684741189.53125
2.39,1684741189.546875
0.02,1684741189.5625
-2.61,1684741189.578125
-5.06,1684741189.59375
-7.41,1684741189.609375
-9.75,1684741189.625
-12.56,1684741189.640625
-16.37,1684741189.65625
-21.59,1684741189.671875
-28.31,1684741189.6875
-36.18,1684741189.703125
-44.05,1684741189.71875
-49.98,1684741189.734375
-51.56,1684741189.75
-46.81,1684741189.765625
-35.24,1684741189.78125
-18.40,1684741189.796875
0.31,1684741189.8125
16.76,1684741189.828125
27.60,1684741189.84375
31.46,1684741189.859375
29.41,1684741189.875
24.25,1684741189.890625
19.10,1684741189.90625
16.01,1684741189.921875
15.26,1684741189.9375
15.76,1684741189.953125
15.79,1684741189.96875
14.04,1684741189.984375
10.08,1684741190.0
4.53,1684741190.015625
-1.30,1684741190.03125
-5.99,1684741190.046875
-8.43,1684741190.0625
-8.10,1684741190.078125
-4.74,1684741190.09375
1.48,1684741190.109375
9.84,1684741190.125
18.92,1684741190.140625
26.82,1684741190.15625
31.36,1684741190.171875
30.90,1684741190.1875
25.39,1684741190.203125
15.90,1684741190.21875
5.08,1684741190.234375
-3.96,1684741190.25
-8.58,1684741190.265625
-7.62,1684741190.28125
-1.56,1684741190.296875
7.55,1684741190.3125
16.75,1684741190.328125
22.99,1684741190.34375
24.18,1684741190.359375
20.20,1684741190.375
12.47,1684741190.390625
3.34,1684741190.40625
-4.82,1684741190.421875
-10.09,1684741190.4375
-11.63,1684741190.453125
-9.77,1684741190.46875
-5.67,1684741190.484375
-0.83,1684741190.5
3.86,1684741190.515625
7.50,1684741190.53125
9.48,1684741190.546875
8.44,1684741190.5625
3.62,1684741190.578125
-4.37,1684741190.59375
-13.24,1684741190.609375
-20.29,1684741190.625
-25.88,1684741190.640625
-29.75,1684741190.65625
-32.09,1684741190.671875
-32.14,1684741190.6875
-30.83,1684741190.703125
-29.50,1684741190.71875
-29.48,1684741190.734375
-31.74,1684741190.75
-36.54,1684741190.765625
-43.27,1684741190.78125
-50.04,1684741190.796875
-54.70,1684741190.8125
-55.39,1684741190.828125
-51.37,1684741190.84375
-42.94,1684741190.859375
-31.70,1684741190.875
-20.36,1684741190.890625
-12.28,1684741190.90625
-10.54,1684741190.921875
-16.65,1684741190.9375
-30.34,1684741190.953125
-49.43,1684741190.96875
-70.47,1684741190.984375
-89.56,1684741191.0
-103.68,1684741191.015625
-111.78,1684741191.03125
-115.06,1684741191.046875
-116.23,1684741191.0625
-118.08,1684741191.078125
-122.62,1684741191.09375
-130.25,1684741191.109375
-139.97,1684741191.125
-149.77,1684741191.140625
-157.62,1684741191.15625
-162.23,1684741191.171875
-163.38,1684741191.1875
-161.58,1684741191.203125
-157.41,1684741191.21875
-151.04,1684741191.234375
-142.11,1684741191.25
-129.95,1684741191.265625
-114.07,1684741191.28125
-94.66,1684741191.296875
-72.78,1684741191.3125
-50.11,1684741191.328125
-28.33,1684741191.34375
-8.61,1684741191.359375
8.60,1684741191.375
23.46,1684741191.390625
36.39,1684741191.40625
47.72,1684741191.421875
57.55,1684741191.4375
65.76,1684741191.453125
72.05,1684741191.46875
76.05,1684741191.484375
77.36,1684741191.5
75.75,1684741191.515625
71.47,1684741191.53125
65.55,1684741191.546875
59.92,1684741191.5625
57.06,1684741191.578125
59.37,1684741191.59375
68.44,1684741191.609375
84.60,1684741191.625
106.82,1684741191.640625
133.10,1684741191.65625
161.14,1684741191.671875
188.92,1684741191.6875
215.16,1684741191.703125
239.51,1684741191.71875
262.37,1684741191.734375
284.17,1684741191.75
304.54,1684741191.765625
321.36,1684741191.78125
330.74,1684741191.796875
327.99,1684741191.8125
309.65,1684741191.828125
275.43,1684741191.84375
229.04,1684741191.859375
177.17,1684741191.875
127.10,1684741191.890625
84.04,1684741191.90625
49.67,1684741191.921875
22.59,1684741191.9375
0.17,1684741191.953125
-19.47,1684741191.96875
-36.51,1684741191.984375
-49.80,1684741192.0
-58.11,1684741192.015625
-61.16,1684741192.03125
-60.04,1684741192.046875
-56.80,1684741192.0625
-53.84,1684741192.078125
-53.66,1684741192.09375
-58.51,1684741192.109375
-70.16,1684741192.125
-89.06,1684741192.140625
-113.68,1684741192.15625
-140.11,1684741192.171875
-162.66,1684741192.1875
-175.52,1684741192.203125
-174.74,1684741192.21875
-159.70,1684741192.234375
-133.39,1684741192.25
-101.21,1684741192.265625
-69.07,1684741192.28125
-41.54,1684741192.296875
-20.92,1684741192.3125
-7.39,1684741192.328125
0.20,1684741192.34375
3.37,1684741192.359375
3.54,1684741192.375
1.87,1684741192.390625
-0.59,1684741192.40625
-2.80,1684741192.421875
-3.87,1684741192.4375
-3.25,1684741192.453125
-0.99,1684741192.46875
2.40,1684741192.484375
6.15,1684741192.5
9.62,1684741192.515625
12.52,1684741192.53125
15.09,1684741192.546875
18.04,1684741192.5625
22.39,1684741192.578125
28.96,1684741192.59375
37.85,1684741192.609375
48.04,1684741192.625
57.33,1684741192.640625
63.01,1684741192.65625
62.73,1684741192.671875
55.53,1684741192.6875
42.45,1684741192.703125
26.47,1684741192.71875
11.82,1684741192.734375
2.90,1684741192.75
3.17,1684741192.765625
14.31,1684741192.78125
35.84,1684741192.796875
65.17,1684741192.8125
98.10,1684741192.828125
129.46,1684741192.84375
154.13,1684741192.859375
168.05,1684741192.875
169.16,1684741192.890625
157.80,1684741192.90625
136.70,1684741192.921875
110.19,1684741192.9375
83.12,1684741192.953125
59.43,1684741192.96875
41.11,1684741192.984375
27.72,1684741193.0
16.87,1684741193.015625
5.45,1684741193.03125
-8.95,1684741193.046875
-27.05,1684741193.0625
-47.76,1684741193.078125
-68.89,1684741193.09375
-88.33,1684741193.109375
-104.81,1684741193.125
-118.24,1684741193.140625
-129.23,1684741193.15625
-138.40,1684741193.171875
-145.89,1684741193.1875
-151.35,1684741193.203125
-154.26,1684741193.21875
-154.47,1684741193.234375
-152.36,1684741193.25
-148.78,1684741193.265625
-144.68,1684741193.28125
-140.76,1684741193.296875
-137.26,1684741193.3125
-133.73,1684741193.328125
-129.09,1684741193.34375
-121.88,1684741193.359375
-110.69,1684741193.375
-94.79,1684741193.390625
-74.50,1684741193.40625
-51.23,1684741193.421875
-27.04,1684741193.4375
-3.86,1684741193.453125
17.13,1684741193.46875
35.73,1684741193.484375
52.41,1684741193.5
67.68,1684741193.515625
81.50,1684741193.53125
93.05,1684741193.546875
101.08,1684741193.5625
104.53,1684741193.578125
103.24,1684741193.59375
98.20,1684741193.609375
91.43,1684741193.625
85.24,1684741193.640625
81.50,1684741193.65625
80.95,1684741193.671875
83.08,1684741193.6875
86.55,1684741193.703125
89.86,1684741193.71875
92.00,1684741193.734375
92.73,1684741193.75
92.35,1684741193.765625
91.33,1684741193.78125
89.92,1684741193.796875
88.03,1684741193.8125
85.47,1684741193.828125
82.08,1684741193.84375
77.90,1684741193.859375
72.92,1684741193.875
66.94,1684741193.890625
59.34,1684741193.90625
49.37,1684741193.921875
36.58,1684741193.9375
21.35,1684741193.953125
5.19,1684741193.96875
-9.47,1684741193.984375
-19.99,1684741194.0
-24.41,1684741194.015625
-22.18,1684741194.03125
-14.38,1684741194.046875
-3.22,1684741194.0625
8.87,1684741194.078125
20.10,1684741194.09375
29.77,1684741194.109375
38.14,1684741194.125
45.77,1684741194.140625
52.89,1684741194.15625
59.02,1684741194.171875
63.03,1684741194.1875
63.69,1684741194.203125
60.11,1684741194.21875
52.15,1684741194.234375
40.45,1684741194.25
26.20,1684741194.265625
10.74,1684741194.28125
-4.76,1684741194.296875
-19.55,1684741194.3125
-33.39,1684741194.328125
-46.37,1684741194.34375
-58.76,1684741194.359375
-70.74,1684741194.375
-82.30,1684741194.390625
-93.28,1684741194.40625
-103.39,1684741194.421875
-112.27,1684741194.4375
-119.45,1684741194.453125
-124.38,1684741194.46875
-126.46,1684741194.484375
-125.35,1684741194.5
-121.22,1684741194.515625
-114.95,1684741194.53125
-108.09,1684741194.546875
-102.45,1684741194.5625
-99.49,1684741194.578125
-99.75,1684741194.59375
-102.42,1684741194.609375
-105.50,1684741194.625
-106.30,1684741194.640625
-102.35,1684741194.65625
-92.23,1684741194.671875
-76.10,1684741194.6875
-55.63,1684741194.703125
-33.40,1684741194.71875
-12.00,1684741194.734375
6.75,1684741194.75
22.29,1684741194.765625
35.15,1684741194.78125
46.52,1684741194.796875
57.55,1684741194.8125
68.84,1684741194.828125
80.25,1684741194.84375
91.05,1684741194.859375
100.31,1684741194.875
107.26,1684741194.890625
111.64,1684741194.90625
113.73,1684741194.921875
114.12,1684741194.9375
113.40,1684741194.953125
111.84,1684741194.96875
109.26,1684741194.984375
105.24,1684741195.0
99.40,1684741195.015625
91.67,1684741195.03125
82.36,1684741195.046875
71.92,1684741195.0625
60.64,1684741195.078125
48.41,1684741195.09375
34.84,1684741195.109375
19.57,1684741195.125
2.69,1684741195.140625
-15.02,1684741195.15625
-32.28,1684741195.171875
-47.68,1684741195.1875
-60.29,1684741195.203125
-69.96,1684741195.21875
-77.31,1684741195.234375
-83.18,1684741195.25
-88.06,1684741195.265625
-91.50,1684741195.28125
-92.16,1684741195.296875
-88.20,1684741195.3125
-78.18,1684741195.328125
-61.78,1684741195.34375
-40.16,1684741195.359375
-15.76,1684741195.375
8.41,1684741195.390625
29.52,1684741195.40625
45.54,1684741195.421875
55.45,1684741195.4375
59.19,1684741195.453125
57.41,1684741195.46875
51.25,1684741195.484375
42.14,1684741195.5
31.58,1684741195.515625
21.02,1684741195.53125
11.68,1684741195.546875
4.49,1684741195.5625
0.07,1684741195.578125
-1.17,1684741195.59375
0.92,1684741195.609375
6.21,1684741195.625
14.13,1684741195.640625
23.68,1684741195.65625
33.58,1684741195.671875
42.50,1684741195.6875
49.38,1684741195.703125
53.65,1684741195.71875
55.24,1684741195.734375
54.52,1684741195.75
52.11,1684741195.765625
48.71,1684741195.78125
45.02,1684741195.796875
41.65,1684741195.8125
39.07,1684741195.828125
37.49,1684741195.84375
36.63,1684741195.859375
35.69,1684741195.875
33.47,1684741195.890625
28.80,1684741195.90625
21.12,1684741195.921875
10.87,1684741195.9375
-0.52,1684741195.953125
-11.30,1684741195.96875
-20.22,1684741195.984375
-27.09,1684741196.0
-32.84,1684741196.015625
-38.80,1684741196.03125
-45.89,1684741196.046875
-53.99,1684741196.0625
-62.10,1684741196.078125
-69.01,1684741196.09375
-74.02,1684741196.109375
-77.30,1684741196.125
-79.66,1684741196.140625
-81.87,1684741196.15625
-84.03,1684741196.171875
-85.44,1684741196.1875
-84.89,1684741196.203125
-81.27,1684741196.21875
-74.10,1684741196.234375
-63.80,1684741196.25
-51.52,1684741196.265625
-38.82,1684741196.28125
-27.25,1684741196.296875
-17.99,1684741196.3125
-11.64,1684741196.328125
-8.23,1684741196.34375
-7.40,1684741196.359375
-8.72,1684741196.375
-12.02,1684741196.390625
-17.48,1684741196.40625
-25.55,1684741196.421875
-36.57,1684741196.4375
-50.39,1684741196.453125
-66.22,1684741196.46875
-82.78,1684741196.484375
-98.67,1684741196.5
-112.84,1684741196.515625
-124.83,1684741196.53125
-134.69,1684741196.546875
-142.75,1684741196.5625
-149.32,1684741196.578125
-154.42,1684741196.59375
-157.77,1684741196.609375
-158.78,1684741196.625
-156.59,1684741196.640625
-150.31,1684741196.65625
-139.17,1684741196.671875
-122.95,1684741196.6875
-102.25,1684741196.703125
-78.56,1684741196.71875
-53.97,1684741196.734375
-30.58,1684741196.75
-9.92,1684741196.765625
7.45,1684741196.78125
21.82,1684741196.796875
33.93,1684741196.8125
44.42,1684741196.828125
53.56,1684741196.84375
61.14,1684741196.859375
66.86,1684741196.875
70.58,1684741196.890625
72.51,1684741196.90625
73.22,1684741196.921875
73.35,1684741196.9375
73.41,1684741196.953125
73.63,1684741196.96875
73.92,1684741196.984375
74.13,1684741197.0
74.10,1684741197.015625
73.91,1684741197.03125
73.74,1684741197.046875
73.80,1684741197.0625
74.12,1684741197.078125
74.45,1684741197.09375
74.38,1684741197.109375
73.54,1684741197.125
71.83,1684741197.140625
69.57,1684741197.15625
67.36,1684741197.171875
65.77,1684741197.1875
65.11,1684741197.203125
65.15,1684741197.21875
65.34,1684741197.234375
65.06,1684741197.25
64.00,1684741197.265625
62.30,1684741197.28125
60.47,1684741197.296875
59.10,1684741197.3125
58.61,1684741197.328125
59.20,1684741197.34375
60.86,1684741197.359375
63.41,1684741197.375
66.52,1684741197.390625
69.58,1684741197.40625
71.76,1684741197.421875
72.18,1684741197.4375
70.31,1684741197.453125
66.25,1684741197.46875
60.94,1684741197.484375
55.87,1684741197.5
52.54,1684741197.515625
51.98,1684741197.53125
54.35,1684741197.546875
58.96,1684741197.5625
64.66,1684741197.578125
70.26,1684741197.59375
74.90,1684741197.609375
78.34,1684741197.625
80.84,1684741197.640625
83.03,1684741197.65625
85.58,1684741197.671875
88.95,1684741197.6875
93.28,1684741197.703125
98.54,1684741197.71875
104.82,1684741197.734375
112.44,1684741197.75
121.74,1684741197.765625
132.45,1684741197.78125
143.07,1684741197.796875
150.67,1684741197.8125
151.56,1684741197.828125
142.65,1684741197.84375
122.86,1684741197.859375
93.78,1684741197.875
59.02,1684741197.890625
22.57,1684741197.90625
-12.85,1684741197.921875
-46.71,1684741197.9375
-80.13,1684741197.953125
-114.50,1684741197.96875
-150.05,1684741197.984375
-185.44,1684741198.0
-218.44,1684741198.015625
-247.28,1684741198.03125
-271.54,1684741198.046875
-292.14,1684741198.0625
-310.27,1684741198.078125
-326.22,1684741198.09375
-338.78,1684741198.109375
-345.65,1684741198.125
-344.66,1684741198.140625
-334.90,1684741198.15625
-317.24,1684741198.171875
-293.91,1684741198.1875
-267.58,1684741198.203125
-240.39,1684741198.21875
-213.60,1684741198.234375
-187.81,1684741198.25
-163.42,1684741198.265625
-141.14,1684741198.28125
-121.95,1684741198.296875
-106.95,1684741198.3125
-96.85,1684741198.328125
-91.53,1684741198.34375
-89.93,1684741198.359375
-90.20,1684741198.375
-90.11,1684741198.390625
-87.49,1684741198.40625
-80.79,1684741198.421875
-69.34,1684741198.4375
-53.73,1684741198.453125
-35.58,1684741198.46875
-17.06,1684741198.484375
-0.27,1684741198.5
13.23,1684741198.515625
22.76,1684741198.53125
28.42,1684741198.546875
30.94,1684741198.5625
31.50,1684741198.578125
31.12,1684741198.59375
30.62,1684741198.609375
30.69,1684741198.625
31.82,1684741198.640625
34.32,1684741198.65625
38.21,1684741198.671875
43.40,1684741198.6875
49.74,1684741198.703125
57.37,1684741198.71875
65.99,1684741198.734375
75.07,1684741198.75
84.59,1684741198.765625
95.53,1684741198.78125
109.74,1684741198.796875
129.56,1684741198.8125
157.12,1684741198.828125
193.56,1684741198.84375
239.08,1684741198.859375
291.38,1684741198.875
346.72,1684741198.890625
401.55,1684741198.90625
453.22,1684741198.921875
499.29,1684741198.9375
536.69,1684741198.953125
561.67,1684741198.96875
570.78,1684741198.984375
563.05,1684741199.0
538.63,1684741199.015625
499.46,1684741199.03125
449.69,1684741199.046875
394.69,1684741199.0625
339.05,1684741199.078125
285.37,1684741199.09375
234.56,1684741199.109375
186.64,1684741199.125
142.49,1684741199.140625
100.75,1684741199.15625
58.30,1684741199.171875
12.27,1684741199.1875
-38.77,1684741199.203125
-95.37,1684741199.21875
-157.82,1684741199.234375
-226.19,1684741199.25
-305.51,1684741199.265625
-384.16,1684741199.28125
-442.63,1684741199.296875
-467.72,1684741199.3125
-459.05,1684741199.328125
-424.72,1684741199.34375
-376.03,1684741199.359375
-324.02,1684741199.375
-276.74,1684741199.390625
-237.60,1684741199.40625
-204.73,1684741199.421875
-176.08,1684741199.4375
-151.26,1684741199.453125
-130.98,1684741199.46875
-115.80,1684741199.484375
-105.73,1684741199.5
-99.78,1684741199.515625
-95.96,1684741199.53125
-91.74,1684741199.546875
-84.36,1684741199.5625
-73.88,1684741199.578125
-62.61,1684741199.59375
-52.99,1684741199.609375
-46.19,1684741199.625
-42.07,1684741199.640625
-39.64,1684741199.65625
-37.58,1684741199.671875
-34.57,1684741199.6875
-29.09,1684741199.703125
-21.29,1684741199.71875
-12.08,1684741199.734375
-3.17,1684741199.75
4.88,1684741199.765625
12.50,1684741199.78125
20.32,1684741199.796875
28.33,1684741199.8125
35.47,1684741199.828125
39.98,1684741199.84375
39.55,1684741199.859375
32.81,1684741199.875
20.61,1684741199.890625
6.37,1684741199.90625
-5.11,1684741199.921875
-9.90,1684741199.9375
-6.70,1684741199.953125
2.72,1684741199.96875
14.70,1684741199.984375
25.24,1684741200.0
31.50,1684741200.015625
32.35,1684741200.03125
28.19,1684741200.046875
20.63,1684741200.0625
11.40,1684741200.078125
1.94,1684741200.09375
-6.53,1684741200.109375
-12.76,1684741200.125
-15.46,1684741200.140625
-13.64,1684741200.15625
-7.19,1684741200.171875
3.13,1684741200.1875
15.94,1684741200.203125
29.94,1684741200.21875
44.17,1684741200.234375
58.39,1684741200.25
72.99,1684741200.265625
88.36,1684741200.28125
103.88,1684741200.296875
117.30,1684741200.3125
121.01,1684741200.328125
109.08,1684741200.34375
80.91,1684741200.359375
42.45,1684741200.375
2.80,1684741200.390625
-30.55,1684741200.40625
-54.17,1684741200.421875
-68.45,1684741200.4375
-75.88,1684741200.453125
-79.19,1684741200.46875
-79.44,1684741200.484375
-76.62,1684741200.5
-70.79,1684741200.515625
-62.85,1684741200.53125
-54.53,1684741200.546875
-47.55,1684741200.5625
-42.94,1684741200.578125
-40.87,1684741200.59375
-40.63,1684741200.609375
-40.61,1684741200.625
-39.23,1684741200.640625
-35.78,1684741200.65625
-30.69,1684741200.671875
-25.15,1684741200.6875
-20.46,1684741200.703125
-17.41,1684741200.71875
-16.16,1684741200.734375
-16.24,1684741200.75
-16.54,1684741200.765625
-16.00,1684741200.78125
-14.11,1684741200.796875
-11.11,1684741200.8125
-7.74,1684741200.828125
-4.80,1684741200.84375
-2.82,1684741200.859375
-1.91,1684741200.875
-1.84,1684741200.890625
-2.01,1684741200.90625
-1.85,1684741200.921875
-1.05,1684741200.9375
0.34,1684741200.953125
1.99,1684741200.96875
3.54,1684741200.984375
4.72,1684741201.0
5.46,1684741201.015625
5.85,1684741201.03125
6.14,1684741201.046875
6.59,1684741201.0625
7.36,1684741201.078125
8.41,1684741201.09375
9.65,1684741201.109375
10.86,1684741201.125
11.91,1684741201.140625
12.68,1684741201.15625
13.22,1684741201.171875
13.60,1684741201.1875
13.98,1684741201.203125
14.47,1684741201.21875
15.14,1684741201.234375
15.94,1684741201.25
16.71,1684741201.265625
17.23,1684741201.28125
17.22,1684741201.296875
16.61,1684741201.3125
15.38,1684741201.328125
13.81,1684741201.34375
12.17,1684741201.359375
10.66,1684741201.375
9.39,1684741201.390625
8.19,1684741201.40625
6.72,1684741201.421875
4.58,1684741201.4375
1.74,1684741201.453125
-1.59,1684741201.46875
-4.88,1684741201.484375
-7.55,1684741201.5
-9.26,1684741201.515625
-10.12,1684741201.53125
-10.70,1684741201.546875
-11.82,1684741201.5625
-14.24,1684741201.578125
-18.07,1684741201.59375
-22.87,1684741201.609375
-27.79,1684741201.625
-32.00,1684741201.640625
-35.24,1684741201.65625
-37.83,1684741201.671875
-40.66,1684741201.6875
-43.89,1684741201.703125
-48.22,1684741201.71875
-53.14,1684741201.734375
-57.86,1684741201.75
-62.02,1684741201.765625
-65.94,1684741201.78125
-70.15,1684741201.796875
-74.40,1684741201.8125
-76.72,1684741201.828125
-73.91,1684741201.84375
-62.96,1684741201.859375
-42.60,1684741201.875
-14.85,1684741201.890625
15.57,1684741201.90625
43.26,1684741201.921875
64.31,1684741201.9375
77.38,1684741201.953125
83.05,1684741201.96875
82.20,1684741201.984375
74.66,1684741202.0
59.53,1684741202.015625
36.71,1684741202.03125
8.58,1684741202.046875
-19.39,1684741202.0625
-40.12,1684741202.078125
-47.91,1684741202.09375
-41.35,1684741202.109375
-24.39,1684741202.125
-4.65,1684741202.140625
10.28,1684741202.15625
16.47,1684741202.171875
15.25,1684741202.1875
11.78,1684741202.203125
11.56,1684741202.21875
16.94,1684741202.234375
25.83,1684741202.25
33.43,1684741202.265625
35.36,1684741202.28125
30.54,1684741202.296875
21.75,1684741202.3125
13.79,1684741202.328125
10.38,1684741202.34375
12.10,1684741202.359375
16.20,1684741202.375
18.65,1684741202.390625
16.68,1684741202.40625
10.36,1684741202.421875
2.46,1684741202.4375
-3.40,1684741202.453125
-4.86,1684741202.46875
-1.80,1684741202.484375
3.86,1684741202.5
9.17,1684741202.515625
11.68,1684741202.53125
10.42,1684741202.546875
6.11,1684741202.5625
0.88,1684741202.578125
-2.39,1684741202.59375
-1.55,1684741202.609375
4.15,1684741202.625
13.38,1684741202.640625
23.08,1684741202.65625
29.82,1684741202.671875
31.39,1684741202.6875
27.71,1684741202.703125
20.88,1684741202.71875
14.02,1684741202.734375
9.21,1684741202.75
6.95,1684741202.765625
6.84,1684741202.78125
7.94,1684741202.796875
9.28,1684741202.8125
10.38,1684741202.828125
10.44,1684741202.84375
8.15,1684741202.859375
1.98,1684741202.875
-9.42,1684741202.890625
-25.08,1684741202.90625
-41.62,1684741202.921875
-54.52,1684741202.9375
-59.83,1684741202.953125
-55.71,1684741202.96875
-42.94,1684741202.984375
-24.17,1684741203.0
-2.55,1684741203.015625
18.27,1684741203.03125
36.32,1684741203.046875
51.01,1684741203.0625
62.82,1684741203.078125
72.86,1684741203.09375
82.31,1684741203.109375
90.55,1684741203.125
94.73,1684741203.140625
97.29,1684741203.15625
97.34,1684741203.171875
96.10,1684741203.1875
96.20,1684741203.203125
100.16,1684741203.21875
108.44,1684741203.234375
118.60,1684741203.25
126.21,1684741203.265625
127.57,1684741203.28125
122.02,1684741203.296875
111.56,1684741203.3125
100.12,1684741203.328125
90.81,1684741203.34375
83.70,1684741203.359375
75.27,1684741203.375
60.12,1684741203.390625
33.55,1684741203.40625
-6.11,1684741203.421875
-56.65,1684741203.4375
-113.42,1684741203.453125
-170.14,1684741203.46875
-219.55,1684741203.484375
-255.32,1684741203.5
-274.18,1684741203.515625
-276.97,1684741203.53125
-267.74,1684741203.546875
-251.31,1684741203.5625
-230.82,1684741203.578125
-206.83,1684741203.59375
-178.69,1684741203.609375
-144.82,1684741203.625
-105.51,1684741203.640625
-64.73,1684741203.65625
-29.39,1684741203.671875
-6.18,1684741203.6875
1.40,1684741203.703125
-5.69,1684741203.71875
-23.04,1684741203.734375
-45.93,1684741203.75
-68.58,1684741203.765625
-85.56,1684741203.78125
-93.58,1684741203.796875
-91.84,1684741203.8125
-81.53,1684741203.828125
-65.21,1684741203.84375
-46.23,1684741203.859375
-19.15,1684741203.875
11.35,1684741203.890625
36.02,1684741203.90625
49.10,1684741203.921875
50.82,1684741203.9375
44.55,1684741203.953125
34.63,1684741203.96875
25.58,1684741203.984375
21.28,1684741204.0
24.04,1684741204.015625
32.20,1684741204.03125
43.09,1684741204.046875
53.72,1684741204.0625
61.23,1684741204.078125
63.67,1684741204.09375
61.02,1684741204.109375
55.16,1684741204.125
48.82,1684741204.140625
44.30,1684741204.15625
41.50,1684741204.171875
39.99,1684741204.1875
39.41,1684741204.203125
39.29,1684741204.21875
39.09,1684741204.234375
38.73,1684741204.25
38.40,1684741204.265625
38.11,1684741204.28125
37.45,1684741204.296875
35.03,1684741204.3125
30.45,1684741204.328125
24.59,1684741204.34375
19.08,1684741204.359375
15.40,1684741204.375
14.52,1684741204.390625
16.41,1684741204.40625
20.04,1684741204.421875
23.91,1684741204.4375
26.33,1684741204.453125
26.78,1684741204.46875
25.97,1684741204.484375
25.58,1684741204.5
26.92,1684741204.515625
31.25,1684741204.53125
39.50,1684741204.546875
52.02,1684741204.5625
67.88,1684741204.578125
84.15,1684741204.59375
96.09,1684741204.609375
98.17,1684741204.625
86.08,1684741204.640625
58.99,1684741204.65625
21.12,1684741204.671875
-19.05,1684741204.6875
-51.67,1684741204.703125
-69.25,1684741204.71875
-69.52,1684741204.734375
-55.80,1684741204.75
-34.97,1684741204.765625
-14.23,1684741204.78125
1.19,1684741204.796875
8.91,1684741204.8125
8.43,1684741204.828125
0.80,1684741204.84375
-12.09,1684741204.859375
-27.64,1684741204.875
-42.36,1684741204.890625
-52.15,1684741204.90625
-53.51,1684741204.921875
-45.63,1684741204.9375
-31.84,1684741204.953125
-18.72,1684741204.96875
-13.66,1684741204.984375
-21.07,1684741205.0
-40.37,1684741205.015625
-65.90,1684741205.03125
-89.41,1684741205.046875
-102.83,1684741205.0625
-101.67,1684741205.078125
-86.42,1684741205.09375
-61.94,1684741205.109375
-35.45,1684741205.125
-13.46,1684741205.140625
-0.58,1684741205.15625
1.33,1684741205.171875
-7.61,1684741205.1875
-24.86,1684741205.203125
-46.69,1684741205.21875
-68.92,1684741205.234375
-87.54,1684741205.25
-99.67,1684741205.265625
-101.23,1684741205.28125
-90.72,1684741205.296875
-67.94,1684741205.3125
-38.39,1684741205.328125
-9.68,1684741205.34375
12.08,1684741205.359375
24.54,1684741205.375
31.01,1684741205.390625
33.16,1684741205.40625
31.78,1684741205.421875
27.32,1684741205.4375
21.20,1684741205.453125
13.04,1684741205.46875
5.39,1684741205.484375
1.18,1684741205.5
1.74,1684741205.515625
5.82,1684741205.53125
9.66,1684741205.546875
9.58,1684741205.5625
3.31,1684741205.578125
-8.88,1684741205.59375
-24.76,1684741205.609375
-40.32,1684741205.625
-52.27,1684741205.640625
-59.34,1684741205.65625
-62.59,1684741205.671875
-64.66,1684741205.6875
-67.73,1684741205.703125
-72.73,1684741205.71875
-79.16,1684741205.734375
-85.97,1684741205.75
-91.73,1684741205.765625
-95.79,1684741205.78125
-98.01,1684741205.796875
-97.88,1684741205.8125
-94.16,1684741205.828125
-84.74,1684741205.84375
-68.17,1684741205.859375
-45.13,1684741205.875
-18.98,1684741205.890625
5.96,1684741205.90625
26.13,1684741205.921875
40.50,1684741205.9375
50.95,1684741205.953125
60.85,1684741205.96875
73.06,1684741205.984375
88.10,1684741206.0
103.82,1684741206.015625
116.86,1684741206.03125
125.16,1684741206.046875
128.58,1684741206.0625
128.62,1684741206.078125
127.38,1684741206.09375
126.73,1684741206.109375
127.85,1684741206.125
131.20,1684741206.140625
136.93,1684741206.15625
145.42,1684741206.171875
158.60,1684741206.1875
178.13,1684741206.203125
203.68,1684741206.21875
231.99,1684741206.234375
257.54,1684741206.25
274.35,1684741206.265625
278.01,1684741206.28125
267.29,1684741206.296875
244.78,1684741206.3125
217.47,1684741206.328125
192.30,1684741206.34375
172.60,1684741206.359375
156.93,1684741206.375
140.99,1684741206.390625
120.75,1684741206.40625
94.74,1684741206.421875
64.68,1684741206.4375
34.75,1684741206.453125
11.95,1684741206.46875
1.55,1684741206.484375
4.77,1684741206.5
18.92,1684741206.515625
39.76,1684741206.53125
63.43,1684741206.546875
86.78,1684741206.5625
106.75,1684741206.578125
106.24,1684741206.59375
75.02,1684741206.609375
16.40,1684741206.625
-53.48,1684741206.640625
-117.34,1684741206.65625
-165.32,1684741206.671875
-195.33,1684741206.6875
-210.13,1684741206.703125
-214.46,1684741206.71875
-213.02,1684741206.734375
-206.95,1684741206.75
-196.65,1684741206.765625
-183.26,1684741206.78125
-169.28,1684741206.796875
-157.22,1684741206.8125
-148.35,1684741206.828125
-142.70,1684741206.84375
-139.56,1684741206.859375
-137.96,1684741206.875
-135.02,1684741206.890625
-128.63,1684741206.90625
-118.47,1684741206.921875
-106.22,1684741206.9375
-94.13,1684741206.953125
-83.62,1684741206.96875
-74.55,1684741206.984375
-65.42,1684741207.0
-53.82,1684741207.015625
-36.87,1684741207.03125
-14.39,1684741207.046875
10.52,1684741207.0625
32.34,1684741207.078125
45.94,1684741207.09375
49.08,1684741207.109375
43.31,1684741207.125
32.91,1684741207.140625
21.33,1684741207.15625
13.59,1684741207.171875
10.96,1684741207.1875
11.67,1684741207.203125
12.73,1684741207.21875
12.08,1684741207.234375
9.44,1684741207.25
5.88,1684741207.265625
2.61,1684741207.28125
0.21,1684741207.296875
-1.17,1684741207.3125
-2.21,1684741207.328125
-3.49,1684741207.34375
-5.15,1684741207.359375
-6.82,1684741207.375
-7.89,1684741207.390625
-7.90,1684741207.40625
-6.76,1684741207.421875
-4.84,1684741207.4375
-2.53,1684741207.453125
-0.37,1684741207.46875
1.91,1684741207.484375
4.56,1684741207.5
8.16,1684741207.515625
12.79,1684741207.53125
17.64,1684741207.546875
21.08,1684741207.5625
21.28,1684741207.578125
17.23,1684741207.59375
9.04,1684741207.609375
-1.73,1684741207.625
-12.79,1684741207.640625
-21.87,1684741207.65625
-27.64,1684741207.671875
-29.90,1684741207.6875
-29.22,1684741207.703125
-26.39,1684741207.71875
-21.98,1684741207.734375
-16.49,1684741207.75
-10.42,1684741207.765625
-4.62,1684741207.78125
0.06,1684741207.796875
2.73,1684741207.8125
3.01,1684741207.828125
1.14,1684741207.84375
-2.05,1684741207.859375
-5.55,1684741207.875
-8.59,1684741207.890625
-11.01,1684741207.90625
-13.23,1684741207.921875
-15.82,1684741207.9375
-19.25,1684741207.953125
-23.49,1684741207.96875
-27.95,1684741207.984375
-31.66,1684741208.0
-33.67,1684741208.015625
-33.46,1684741208.03125
-30.97,1684741208.046875
-27.58,1684741208.0625
-24.41,1684741208.078125
-22.36,1684741208.09375
-21.88,1684741208.109375
-22.86,1684741208.125
-24.82,1684741208.140625
-27.19,1684741208.15625
-29.55,1684741208.171875
-31.73,1684741208.1875
-33.76,1684741208.203125
-35.63,1684741208.21875
-37.36,1684741208.234375
-39.02,1684741208.25
-40.69,1684741208.265625
-42.47,1684741208.28125
-44.36,1684741208.296875
-46.08,1684741208.3125
-47.01,1684741208.328125
-46.26,1684741208.34375
-42.79,1684741208.359375
-35.95,1684741208.375
-25.72,1684741208.390625
-12.83,1684741208.40625
1.42,1684741208.421875
15.52,1684741208.4375
28.24,1684741208.453125
38.87,1684741208.46875
47.33,1684741208.484375
53.94,1684741208.5
59.14,1684741208.515625
63.13,1684741208.53125
65.84,1684741208.546875
67.03,1684741208.5625
66.53,1684741208.578125
64.45,1684741208.59375
61.17,1684741208.609375
57.28,1684741208.625
53.34,1684741208.640625
49.74,1684741208.65625
46.55,1684741208.671875
43.63,1684741208.6875
40.78,1684741208.703125
37.82,1684741208.71875
34.68,1684741208.734375
31.34,1684741208.75
27.81,1684741208.765625
24.02,1684741208.78125
19.87,1684741208.796875
15.25,1684741208.8125
10.09,1684741208.828125
4.48,1684741208.84375
-1.39,1684741208.859375
-7.31,1684741208.875
-13.15,1684741208.890625
-18.92,1684741208.90625
-24.72,1684741208.921875
-30.51,1684741208.9375
-35.94,1684741208.953125
-40.30,1684741208.96875
-42.62,1684741208.984375
-42.01,1684741209.0
-38.01,1684741209.015625
-30.79,1684741209.03125
-21.13,1684741209.046875
-10.18,1684741209.0625
0.93,1684741209.078125
11.32,1684741209.09375
20.49,1684741209.109375
28.26,1684741209.125
34.61,1684741209.140625
39.56,1684741209.15625
43.06,1684741209.171875
45.07,1684741209.1875
45.61,1684741209.203125
44.82,1684741209.21875
42.94,1684741209.234375
40.23,1684741209.25
36.99,1684741209.265625
33.44,1684741209.28125
29.80,1684741209.296875
26.28,1684741209.3125
23.06,1684741209.328125
20.29,1684741209.34375
17.96,1684741209.359375
15.94,1684741209.375
13.95,1684741209.390625
11.70,1684741209.40625
9.00,1684741209.421875
5.82,1684741209.4375
2.31,1684741209.453125
-1.30,1684741209.46875
-4.84,1684741209.484375
-8.20,1684741209.5
-11.46,1684741209.515625
-14.78,1684741209.53125
-18.44,1684741209.546875
-22.69,1684741209.5625
-27.67,1684741209.578125
-33.25,1684741209.59375
-38.93,1684741209.609375
-43.82,1684741209.625
-46.81,1684741209.640625
-46.90,1684741209.65625
-43.51,1684741209.671875
-36.73,1684741209.6875
-27.30,1684741209.703125
-16.37,1684741209.71875
-5.13,1684741209.734375
5.47,1684741209.75
14.89,1684741209.765625
22.94,1684741209.78125
29.63,1684741209.796875
34.99,1684741209.8125
39.00,1684741209.828125
41.58,1684741209.84375
42.68,1684741209.859375
42.37,1684741209.875
40.88,1684741209.890625
38.61,1684741209.90625
36.00,1684741209.921875
33.40,1684741209.9375
31.05,1684741209.953125
28.97,1684741209.96875
27.03,1684741209.984375
25.00,1684741210.0
22.68,1684741210.015625
19.94,1684741210.03125
16.75,1684741210.046875
13.14,1684741210.0625
9.23,1684741210.078125
5.10,1684741210.09375
0.85,1684741210.109375
-3.42,1684741210.125
-7.62,1684741210.140625
-11.71,1684741210.15625
-15.67,1684741210.171875
-19.54,1684741210.1875
-23.45,1684741210.203125
-27.57,1684741210.21875
-32.02,1684741210.234375
-36.73,1684741210.25
-41.24,1684741210.265625
-44.81,1684741210.28125
-46.46,1684741210.296875
-45.35,1684741210.3125
-41.11,1684741210.328125
-33.99,1684741210.34375
-24.87,1684741210.359375
-14.93,1684741210.375
-5.29,1684741210.390625
3.31,1684741210.40625
10.61,1684741210.421875
16.69,1684741210.4375
21.74,1684741210.453125
25.85,1684741210.46875
28.95,1684741210.484375
30.91,1684741210.5
31.71,1684741210.515625
31.50,1684741210.53125
30.55,1684741210.546875
29.15,1684741210.5625
27.47,1684741210.578125
25.57,1684741210.59375
23.43,1684741210.609375
21.09,1684741210.625
18.70,1684741210.640625
16.47,1684741210.65625
14.53,1684741210.671875
12.87,1684741210.6875
11.26,1684741210.703125
9.36,1684741210.71875
6.85,1684741210.734375
3.58,1684741210.75
-0.38,1684741210.765625
-4.73,1684741210.78125
-9.11,1684741210.796875
-13.20,1684741210.8125
-16.81,1684741210.828125
-20.00,1684741210.84375
-22.97,1684741210.859375
-26.09,1684741210.875
-29.72,1684741210.890625
-34.05,1684741210.90625
-38.94,1684741210.921875
-43.86,1684741210.9375
-47.90,1684741210.953125
-50.01,1684741210.96875
-49.30,1684741210.984375
-45.33,1684741211.0
-38.27,1684741211.015625
-28.82,1684741211.03125
-18.04,1684741211.046875
-6.98,1684741211.0625
3.50,1684741211.078125
12.91,1684741211.09375
21.08,1684741211.109375
28.02,1684741211.125
33.76,1684741211.140625
38.21,1684741211.15625
41.24,1684741211.171875
42.69,1684741211.1875
42.56,1684741211.203125
41.10,1684741211.21875
38.77,1684741211.234375
36.13,1684741211.25
33.64,1684741211.265625
31.48,1684741211.28125
29.59,1684741211.296875
27.80,1684741211.3125
25.94,1684741211.328125
23.97,1684741211.34375
21.92,1684741211.359375
19.82,1684741211.375
17.49,1684741211.390625
14.67,1684741211.40625
11.09,1684741211.421875
6.63,1684741211.4375
1.54,1684741211.453125
-3.71,1684741211.46875
-8.57,1684741211.484375
-12.65,1684741211.5
-15.93,1684741211.515625
-18.66,1684741211.53125
-21.34,1684741211.546875
-24.43,1684741211.5625
-28.23,1684741211.578125
-32.75,1684741211.59375
-37.75,1684741211.609375
-42.68,1684741211.625
-46.84,1684741211.640625
-49.36,1684741211.65625
-49.46,1684741211.671875
-46.61,1684741211.6875
-40.73,1684741211.703125
-32.31,1684741211.71875
-22.24,1684741211.734375
-11.61,1684741211.75
-1.34,1684741211.765625
7.98,1684741211.78125
16.13,1684741211.796875
23.14,1684741211.8125
29.01,1684741211.828125
33.66,1684741211.84375
36.86,1684741211.859375
38.43,1684741211.875
38.37,1684741211.890625
36.92,1684741211.90625
34.54,1684741211.921875
31.68,1684741211.9375
28.69,1684741211.953125
25.66,1684741211.96875
22.53,1684741211.984375
19.17,1684741212.0
15.59,1684741212.015625
11.97,1684741212.03125
8.58,1684741212.046875
5.64,1684741212.0625
3.20,1684741212.078125
1.01,1684741212.09375
-1.28,1684741212.109375
-4.04,1684741212.125
-7.44,1684741212.140625
-11.37,1684741212.15625
-15.51,1684741212.171875
-19.44,1684741212.1875
-22.85,1684741212.203125
-25.61,1684741212.21875
-27.82,1684741212.234375
-29.81,1684741212.25
-31.98,1684741212.265625
-34.73,1684741212.28125
-38.24,1684741212.296875
-42.36,1684741212.3125
-46.52,1684741212.328125
-49.77,1684741212.34375
-51.06,1684741212.359375
-49.52,1684741212.375
-44.78,1684741212.390625
-37.09,1684741212.40625
-27.26,1684741212.421875
-16.44,1684741212.4375
-5.77,1684741212.453125
3.90,1684741212.46875
12.14,1684741212.484375
18.92,1684741212.5
24.44,1684741212.515625
28.92,1684741212.53125
32.42,1684741212.546875
34.85,1684741212.5625
36.04,1684741212.578125
35.94,1684741212.59375
34.65,1684741212.609375
32.45,1684741212.625
29.63,1684741212.640625
26.48,1684741212.65625
23.22,1684741212.671875
20.06,1684741212.6875
17.23,1684741212.703125
14.96,1684741212.71875
13.40,1684741212.734375
12.44,1684741212.75
11.78,1684741212.765625
10.91,1684741212.78125
9.40,1684741212.796875
7.03,1684741212.8125
3.93,1684741212.828125
0.45,1684741212.84375
-3.04,1684741212.859375
-6.29,1684741212.875
-9.32,1684741212.890625
-12.40,1684741212.90625
-15.86,1684741212.921875
-19.96,1684741212.9375
-24.75,1684741212.953125
-29.97,1684741212.96875
-35.06,1684741212.984375
-39.29,1684741213.0
-41.83,1684741213.015625
-42.01,1684741213.03125
-39.42,1684741213.046875
-34.12,1684741213.0625
-26.59,1684741213.078125
-17.61,1684741213.09375
-8.13,1684741213.109375
1.01,1684741213.125
9.17,1684741213.140625
15.99,1684741213.15625
21.31,1684741213.171875
25.09,1684741213.1875
27.37,1684741213.203125
28.28,1684741213.21875
28.06,1684741213.234375
27.06,1684741213.25
25.71,1684741213.265625
24.35,1684741213.28125
23.18,1684741213.296875
22.18,1684741213.3125
21.18,1684741213.328125
19.98,1684741213.34375
18.47,1684741213.359375
16.70,1684741213.375
14.80,1684741213.390625
12.92,1684741213.40625
11.13,1684741213.421875
9.34,1684741213.4375
7.31,1684741213.453125
4.81,1684741213.46875
1.69,1684741213.484375
-2.04,1684741213.5
-6.15,1684741213.515625
-10.26,1684741213.53125
-13.99,1684741213.546875
-17.13,1684741213.5625
-19.71,1684741213.578125
-22.04,1684741213.59375
-24.60,1684741213.609375
-27.82,1684741213.625
-31.93,1684741213.640625
-36.79,1684741213.65625
-41.90,1684741213.671875
-46.42,1684741213.6875
-49.39,1684741213.703125
-49.90,1684741213.71875
-47.43,1684741213.734375
-41.92,1684741213.75
-33.88,1684741213.765625
-24.22,1684741213.78125
-13.99,1684741213.796875
-4.12,1684741213.8125
4.78,1684741213.828125
12.45,1684741213.84375
18.81,1684741213.859375
23.87,1684741213.875
27.61,1684741213.890625
29.96,1684741213.90625
30.90,1684741213.921875
30.58,1684741213.9375
29.32,1684741213.953125
27.56,1684741213.96875
25.71,1684741213.984375
24.09,1684741214.0
22.79,1684741214.015625
21.70,1684741214.03125
20.62,1684741214.046875
19.32,1684741214.0625
17.70,1684741214.078125
15.79,1684741214.09375
13.71,1684741214.109375
11.56,1684741214.125
9.34,1684741214.140625
6.95,1684741214.15625
4.24,1684741214.171875
1.11,1684741214.1875
-2.33,1684741214.203125
-5.82,1684741214.21875
-9.08,1684741214.234375
-11.91,1684741214.25
-14.33,1684741214.265625
-16.65,1684741214.28125
-19.30,1684741214.296875
-22.67,1684741214.3125
-26.96,1684741214.328125
-32.00,1684741214.34375
-37.24,1684741214.359375
-41.82,1684741214.375
-44.75,1684741214.390625
-45.15,1684741214.40625
-42.55,1684741214.421875
-37.01,1684741214.4375
-29.13,1684741214.453125
-19.88,1684741214.46875
-10.30,1684741214.484375
-1.19,1684741214.5
6.93,1684741214.515625
13.87,1684741214.53125
19.56,1684741214.546875
23.88,1684741214.5625
26.68,1684741214.578125
27.83,1684741214.59375
27.39,1684741214.609375
25.66,1684741214.625
23.15,1684741214.640625
20.40,1684741214.65625
17.79,1684741214.671875
15.47,1684741214.6875
13.29,1684741214.703125
11.05,1684741214.71875
8.63,1684741214.734375
6.08,1684741214.75
3.63,1684741214.765625
1.53,1684741214.78125
-0.12,1684741214.796875
-1.45,1684741214.8125
-2.75,1684741214.828125
-4.27,1684741214.84375
-6.04,1684741214.859375
-7.86,1684741214.875
-9.36,1684741214.890625
-10.26,1684741214.90625
-10.54,1684741214.921875
-10.50,1684741214.9375
-10.65,1684741214.953125
-11.51,1684741214.96875
-13.43,1684741214.984375
-16.48,1684741215.0
-20.46,1684741215.015625
-24.92,1684741215.03125
-29.27,1684741215.046875
-32.74,1684741215.0625
-34.48,1684741215.078125
-33.77,1684741215.09375
-30.15,1684741215.109375
-23.74,1684741215.125
-15.21,1684741215.140625
-5.65,1684741215.15625
3.78,1684741215.171875
12.20,1684741215.1875
19.19,1684741215.203125
24.79,1684741215.21875
29.24,1684741215.234375
32.74,1684741215.25
35.29,1684741215.265625
36.70,1684741215.28125
36.79,1684741215.296875
35.57,1684741215.3125
33.29,1684741215.328125
30.39,1684741215.34375
27.33,1684741215.359375
24.44,1684741215.375
21.90,1684741215.390625
19.77,1684741215.40625
18.06,1684741215.421875
16.74,1684741215.4375
15.75,1684741215.453125
14.92,1684741215.46875
14.03,1684741215.484375
12.81,1684741215.5
11.06,1684741215.515625
8.69,1684741215.53125
5.83,1684741215.546875
2.72,1684741215.5625
-0.36,1684741215.578125
-3.21,1684741215.59375
-5.78,1684741215.609375
-8.15,1684741215.625
-10.56,1684741215.640625
-13.26,1684741215.65625
-16.45,1684741215.671875
-20.20,1684741215.6875
-24.36,1684741215.703125
-28.47,1684741215.71875
-31.78,1684741215.734375
-33.38,1684741215.75
-32.43,1684741215.765625
-28.51,1684741215.78125
-21.77,1684741215.796875
-12.96,1684741215.8125
-3.21,1684741215.828125
6.34,1684741215.84375
14.86,1684741215.859375
21.92,1684741215.875
27.47,1684741215.890625
31.56,1684741215.90625
34.21,1684741215.921875
35.36,1684741215.9375
35.02,1684741215.953125
33.39,1684741215.96875
30.91,1684741215.984375
28.16,1684741216.0
25.66,1684741216.015625
23.67,1684741216.03125
22.13,1684741216.046875
20.79,1684741216.0625
19.33,1684741216.078125
17.60,1684741216.09375
15.64,1684741216.109375
13.61,1684741216.125
11.64,1684741216.140625
9.72,1684741216.15625
7.70,1684741216.171875
5.31,1684741216.1875
2.38,1684741216.203125
-1.10,1684741216.21875
-4.89,1684741216.234375
-8.65,1684741216.25
-12.05,1684741216.265625
-14.89,1684741216.28125
-17.24,1684741216.296875
-19.35,1684741216.3125
-21.67,1684741216.328125
-24.58,1684741216.34375
-28.31,1684741216.359375
-32.81,1684741216.375
-37.64,1684741216.390625
-42.06,1684741216.40625
-45.13,1684741216.421875
-45.94,1684741216.4375
-43.85,1684741216.453125
-38.69,1684741216.46875
-30.86,1684741216.484375
-21.24,1684741216.5
-10.93,1684741216.515625
-0.94,1684741216.53125
8.01,1684741216.546875
15.59,1684741216.5625
21.78,1684741216.578125
26.68,1684741216.59375
30.35,1684741216.609375
32.74,1684741216.625
33.78,1684741216.640625
33.49,1684741216.65625
32.04,1684741216.671875
29.79,1684741216.6875
27.17,1684741216.703125
24.60,1684741216.71875
22.39,1684741216.734375
20.62,1684741216.75
19.23,1684741216.765625
18.00,1684741216.78125
16.66,1684741216.796875
15.00,1684741216.8125
12.96,1684741216.828125
10.62,1684741216.84375
8.13,1684741216.859375
5.54,1684741216.875
2.82,1684741216.890625
-0.18,1684741216.90625
-3.55,1684741216.921875
-7.22,1684741216.9375
-10.92,1684741216.953125
-14.31,1684741216.96875
-17.14,1684741216.984375
-19.40,1684741217.0
-21.28,1684741217.015625
-23.17,1684741217.03125
-25.41,1684741217.046875
-28.24,1684741217.0625
-31.70,1684741217.078125
-35.57,1684741217.09375
-39.37,1684741217.109375
-42.39,1684741217.125
-43.81,1684741217.140625
-42.86,1684741217.15625
-39.10,1684741217.171875
-32.58,1684741217.1875
-23.86,1684741217.203125
-13.86,1684741217.21875
-3.56,1684741217.234375
6.23,1684741217.25
15.06,1684741217.265625
22.77,1684741217.28125
29.33,1684741217.296875
34.68,1684741217.3125
38.63,1684741217.328125
40.98,1684741217.34375
41.59,1684741217.359375
40.59,1684741217.375
38.34,1684741217.390625
35.42,1684741217.40625
32.38,1684741217.421875
29.65,1684741217.4375
27.37,1684741217.453125
25.48,1684741217.46875
23.79,1684741217.484375
22.16,1684741217.5
20.55,1684741217.515625
19.04,1684741217.53125
17.71,1684741217.546875
16.50,1684741217.5625
15.22,1684741217.578125
13.50,1684741217.59375
11.00,1684741217.609375
7.52,1684741217.625
3.14,1684741217.640625
-1.74,1684741217.65625
-6.54,1684741217.671875
-10.75,1684741217.6875
-14.06,1684741217.703125
-16.54,1684741217.71875
-18.53,1684741217.734375
-20.54,1684741217.75
-23.07,1684741217.765625
-26.44,1684741217.78125
-30.73,1684741217.796875
-35.69,1684741217.8125
-40.76,1684741217.828125
-45.09,1684741217.84375
-47.72,1684741217.859375
-47.77,1684741217.875
-44.71,1684741217.890625
-38.57,1684741217.90625
-29.95,1684741217.921875
-19.85,1684741217.9375
-9.40,1684741217.953125
0.45,1684741217.96875
9.09,1684741217.984375
16.29,1684741218.0
22.04,1684741218.015625
26.44,1684741218.03125
29.56,1684741218.046875
31.40,1684741218.0625
31.97,1684741218.078125
31.35,1684741218.09375
29.76,1684741218.109375
27.55,1684741218.125
25.08,1684741218.140625
22.65,1684741218.15625
20.39,1684741218.171875
18.26,1684741218.1875
16.18,1684741218.203125
14.08,1684741218.21875
12.01,1684741218.234375
10.11,1684741218.25
8.48,1684741218.265625
7.05,1684741218.28125
5.57,1684741218.296875
3.65,1684741218.3125
0.97,1684741218.328125
-2.56,1684741218.34375
-6.72,1684741218.359375
-11.06,1684741218.375
-15.07,1684741218.390625
-18.39,1684741218.40625
-20.99,1684741218.421875
-23.06,1684741218.4375
-25.02,1684741218.453125
-27.27,1684741218.46875
-30.09,1684741218.484375
-33.55,1684741218.5
-37.41,1684741218.515625
-41.17,1684741218.53125
-44.13,1684741218.546875
-45.53,1684741218.5625
-44.68,1684741218.578125
-41.24,1684741218.59375
-35.29,1684741218.609375
-27.32,1684741218.625
-18.16,1684741218.640625
-8.71,1684741218.65625
0.30,1684741218.671875
8.32,1684741218.6875
15.10,1684741218.703125
20.54,1684741218.71875
24.65,1684741218.734375
27.41,1684741218.75
28.84,1684741218.765625
29.05,1684741218.78125
28.24,1684741218.796875
26.76,1684741218.8125
25.01,1684741218.828125
23.31,1684741218.84375
21.80,1684741218.859375
20.44,1684741218.875
19.07,1684741218.890625
17.55,1684741218.90625
15.85,1684741218.921875
14.09,1684741218.9375
12.41,1684741218.953125
10.87,1684741218.96875
9.43,1684741218.984375
7.89,1684741219.0
6.01,1684741219.015625
3.61,1684741219.03125
0.68,1684741219.046875
-2.65,1684741219.0625
-6.10,1684741219.078125
-9.35,1684741219.09375
-12.13,1684741219.109375
-14.30,1684741219.125
-15.97,1684741219.140625
-17.49,1684741219.15625
-19.34,1684741219.171875
-22.02,1684741219.1875
-25.78,1684741219.203125
-30.50,1684741219.21875
-35.58,1684741219.234375
-40.07,1684741219.25
-42.86,1684741219.265625
-43.01,1684741219.28125
-40.05,1684741219.296875
-34.07,1684741219.3125
-25.69,1684741219.328125
-15.89,1684741219.34375
-5.70,1684741219.359375
4.03,1684741219.375
12.73,1684741219.390625
20.07,1684741219.40625
25.87,1684741219.421875
30.01,1684741219.4375
32.42,1684741219.453125
33.15,1684741219.46875
32.40,1684741219.484375
30.56,1684741219.5
28.10,1684741219.515625
25.45,1684741219.53125
22.88,1684741219.546875
20.52,1684741219.5625
18.34,1684741219.578125
16.25,1684741219.59375
14.19,1684741219.609375
12.14,1684741219.625
10.11,1684741219.640625
8.11,1684741219.65625
6.13,1684741219.671875
4.12,1684741219.6875
1.98,1684741219.703125
-0.37,1684741219.71875
-2.98,1684741219.734375
-5.83,1684741219.75
-8.84,1684741219.765625
-11.89,1684741219.78125
-14.87,1684741219.796875
-17.71,1684741219.8125
-20.38,1684741219.828125
-22.98,1684741219.84375
-25.66,1684741219.859375
-28.61,1684741219.875
-31.96,1684741219.890625
-35.64,1684741219.90625
-39.27,1684741219.921875
-42.15,1684741219.9375
-43.38,1684741219.953125
-42.15,1684741219.96875
-38.07,1684741219.984375
-31.29,1684741220.0
-22.54,1684741220.015625
-12.83,1684741220.03125
-3.18,1684741220.046875
5.67,1684741220.0625
13.34,1684741220.078125
19.66,1684741220.09375
24.60,1684741220.109375
28.10,1684741220.125
30.10,1684741220.140625
30.60,1684741220.15625
29.70,1684741220.171875
27.67,1684741220.1875
24.89,1684741220.203125
21.73,1684741220.21875
18.51,1684741220.234375
15.42,1684741220.25
12.54,1684741220.265625
9.89,1684741220.28125
7.38,1684741220.296875
4.92,1684741220.3125
2.36,1684741220.328125
-0.39,1684741220.34375
-3.40,1684741220.359375
-6.64,1684741220.375
-10.01,1684741220.390625
-13.47,1684741220.40625
-17.02,1684741220.421875
-20.71,1684741220.4375
-24.61,1684741220.453125
-28.69,1684741220.46875
-32.79,1684741220.484375
-36.70,1684741220.5
-40.38,1684741220.515625
-43.98,1684741220.53125
-47.88,1684741220.546875
-52.40,1684741220.5625
-57.47,1684741220.578125
-62.41,1684741220.59375
-66.00,1684741220.609375
-66.88,1684741220.625
-64.13,1684741220.640625
-57.73,1684741220.65625
-48.64,1684741220.671875
-38.54,1684741220.6875
-29.26,1684741220.703125
-22.23,1684741220.71875
-18.16,1684741220.734375
-16.97,1684741220.75
-17.98,1684741220.765625
-20.10,1684741220.78125
-22.16,1684741220.796875
-22.97,1684741220.8125
-21.52,1684741220.828125
-17.01,1684741220.84375
-8.79,1684741220.859375
3.66,1684741220.875
20.63,1684741220.890625
41.94,1684741220.90625
66.54,1684741220.921875
92.12,1684741220.9375
115.04,1684741220.953125
130.74,1684741220.96875
134.59,1684741220.984375
122.96,1684741221.0
94.10,1684741221.015625
48.68,1684741221.03125
-10.16,1684741221.046875
-77.04,1684741221.0625
-144.90,1684741221.078125
-205.68,1684741221.09375
-251.64,1684741221.109375
-276.90,1684741221.125
-278.97,1684741221.140625
-259.53,1684741221.15625
-223.97,1684741221.171875
-179.55,1684741221.1875
-133.18,1684741221.203125
-89.49,1684741221.21875
-50.18,1684741221.234375
-14.76,1684741221.25
17.92,1684741221.265625
48.43,1684741221.28125
76.27,1684741221.296875
100.35,1684741221.3125
119.89,1684741221.328125
134.89,1684741221.34375
146.00,1684741221.359375
153.95,1684741221.375
158.95,1684741221.390625
160.59,1684741221.40625
158.35,1684741221.421875
152.27,1684741221.4375
143.36,1684741221.453125
133.49,1684741221.46875
124.79,1684741221.484375
118.88,1684741221.5
116.35,1684741221.515625
116.68,1684741221.53125
118.60,1684741221.546875
120.70,1684741221.5625
121.83,1684741221.578125
121.33,1684741221.59375
118.94,1684741221.609375
114.64,1684741221.625
108.48,1684741221.640625
100.69,1684741221.65625
91.57,1684741221.671875
81.55,1684741221.6875
71.08,1684741221.703125
60.39,1684741221.71875
49.30,1684741221.734375
37.36,1684741221.75
24.01,1684741221.765625
9.00,1684741221.78125
-7.35,1684741221.796875
-24.18,1684741221.8125
-40.31,1684741221.828125
-54.70,1684741221.84375
-66.65,1684741221.859375
-75.84,1684741221.875
-82.09,1684741221.890625
-85.17,1684741221.90625
-84.80,1684741221.921875
-80.86,1684741221.9375
-73.71,1684741221.953125
-64.26,1684741221.96875
-53.83,1684741221.984375
-43.66,1684741222.0
-34.50,1684741222.015625
-26.52,1684741222.03125
-19.44,1684741222.046875
-13.01,1684741222.0625
-7.24,1684741222.078125
-2.40,1684741222.09375
1.23,1684741222.109375
3.68,1684741222.125
5.34,1684741222.140625
6.84,1684741222.15625
8.68,1684741222.171875
10.97,1684741222.1875
13.34,1684741222.203125
15.18,1684741222.21875
15.96,1684741222.234375
15.48,1684741222.25
13.94,1684741222.265625
11.81,1684741222.28125
9.53,1684741222.296875
7.41,1684741222.3125
5.42,1684741222.328125
3.34,1684741222.34375
0.75,1684741222.359375
-2.84,1684741222.375
-7.87,1684741222.390625
-14.58,1684741222.40625
-22.75,1684741222.421875
-31.58,1684741222.4375
-39.66,1684741222.453125
-45.28,1684741222.46875
-46.89,1684741222.484375
-43.64,1684741222.5
-35.70,1684741222.515625
-24.20,1684741222.53125
-10.91,1684741222.546875
2.26,1684741222.5625
13.60,1684741222.578125
21.84,1684741222.59375
26.22,1684741222.609375
26.51,1684741222.625
23.09,1684741222.640625
16.90,1684741222.65625
9.35,1684741222.671875
2.04,1684741222.6875
-3.60,1684741222.703125
-6.70,1684741222.71875
-7.09,1684741222.734375
-5.26,1684741222.75
-2.17,1684741222.765625
1.13,1684741222.78125
3.74,1684741222.796875
5.20,1684741222.8125
5.56,1684741222.828125
5.31,1684741222.84375
5.14,1684741222.859375
5.54,1684741222.875
6.50,1684741222.890625
7.47,1684741222.90625
7.52,1684741222.921875
5.87,1684741222.9375
2.21,1684741222.953125
-3.01,1684741222.96875
-8.80,1684741222.984375
-13.99,1684741223.0
-17.70,1684741223.015625
-19.65,1684741223.03125
-20.12,1684741223.046875
-19.69,1684741223.0625
-18.87,1684741223.078125
-17.87,1684741223.09375
-16.52,1684741223.109375
-14.41,1684741223.125
-11.03,1684741223.140625
-6.06,1684741223.15625
0.53,1684741223.171875
8.43,1684741223.1875
17.10,1684741223.203125
25.93,1684741223.21875
34.39,1684741223.234375
42.17,1684741223.25
49.10,1684741223.265625
55.08,1684741223.28125
59.92,1684741223.296875
63.37,1684741223.3125
65.24,1684741223.328125
65.65,1684741223.34375
65.19,1684741223.359375
64.73,1684741223.375
65.20,1684741223.390625
67.16,1684741223.40625
70.59,1684741223.421875
74.97,1684741223.4375
79.44,1684741223.453125
83.15,1684741223.46875
85.48,1684741223.484375
86.07,1684741223.5
84.74,1684741223.515625
81.45,1684741223.53125
76.30,1684741223.546875
69.58,1684741223.5625
61.63,1684741223.578125
52.50,1684741223.59375
41.92,1684741223.609375
29.29,1684741223.625
14.07,1684741223.640625
-3.96,1684741223.65625
-24.36,1684741223.671875
-45.78,1684741223.6875
-66.23,1684741223.703125
-83.40,1684741223.71875
-95.68,1684741223.734375
-102.28,1684741223.75
-103.42,1684741223.765625
-100.12,1684741223.78125
-94.07,1684741223.796875
-87.23,1684741223.8125
-81.15,1684741223.828125
-76.79,1684741223.84375
-74.15,1684741223.859375
-72.98,1684741223.875
-72.76,1684741223.890625
-72.83,1684741223.90625
-72.49,1684741223.921875
-71.34,1684741223.9375
-69.39,1684741223.953125
-66.91,1684741223.96875
-64.67,1684741223.984375
-63.38,1684741224.0
-64.33,1684741224.015625
-68.47,1684741224.03125
-75.99,1684741224.046875
-85.94,1684741224.0625
-97.10,1684741224.078125
-108.57,1684741224.09375
-119.79,1684741224.109375
-130.82,1684741224.125
-136.22,1684741224.140625
-131.02,1684741224.15625
-112.74,1684741224.171875
-83.03,1684741224.1875
-46.37,1684741224.203125
-8.47,1684741224.21875
24.39,1684741224.234375
49.94,1684741224.25
66.72,1684741224.265625
74.87,1684741224.28125
75.60,1684741224.296875
71.38,1684741224.3125
63.72,1684741224.328125
55.31,1684741224.34375
48.60,1684741224.359375
45.03,1684741224.375
45.22,1684741224.390625
48.54,1684741224.40625
54.01,1684741224.421875
