1684397536.00,timestamp
-0.00,1684397536.0
-0.00,1684397536.015625
-0.00,1684397536.03125
-0.00,1684397536.046875
-0.00,1684397536.0625
-0.00,1684397536.078125
-0.00,1684397536.09375
-0.00,1684397536.109375
-0.00,1684397536.125
-0.00,1684397536.140625
0.00,1684397536.15625
0.01,1684397536.171875
0.01,1684397536.1875
-0.00,1684397536.203125
-0.03,1684397536.21875
-0.05,1684397536.234375
-0.05,1684397536.25
0.00,1684397536.265625
0.13,1684397536.28125
0.36,1684397536.296875
0.66,1684397536.3125
1.01,1684397536.328125
1.37,1684397536.34375
1.72,1684397536.359375
2.06,1684397536.375
2.40,1684397536.390625
2.79,1684397536.40625
3.24,1684397536.421875
3.80,1684397536.4375
4.42,1684397536.453125
5.06,1684397536.46875
5.66,1684397536.484375
6.20,1684397536.5
6.68,1684397536.515625
7.15,1684397536.53125
7.68,1684397536.546875
8.31,1684397536.5625
9.14,1684397536.578125
10.09,1684397536.59375
11.04,1684397536.609375
11.88,1684397536.625
12.56,1684397536.640625
13.14,1684397536.65625
13.76,1684397536.671875
14.65,1684397536.6875
15.96,1684397536.703125
17.91,1684397536.71875
20.32,1684397536.734375
22.90,1684397536.75
25.38,1684397536.765625
27.58,1684397536.78125
29.57,1684397536.796875
31.68,1684397536.8125
34.32,1684397536.828125
37.81,1684397536.84375
42.54,1684397536.859375
48.15,1684397536.875
54.10,1684397536.890625
59.83,1684397536.90625
64.97,1684397536.921875
69.58,1684397536.9375
74.14,1684397536.953125
79.34,1684397536.96875
85.71,1684397536.984375
93.76,1684397537.0
103.00,1684397537.015625
112.62,1684397537.03125
121.73,1684397537.046875
129.77,1684397537.0625
136.75,1684397537.078125
143.30,1684397537.09375
150.75,1684397537.109375
157.77,1684397537.125
166.64,1684397537.140625
177.95,1684397537.15625
191.79,1684397537.171875
206.97,1684397537.1875
220.57,1684397537.203125
228.25,1684397537.21875
225.36,1684397537.234375
208.53,1684397537.25
176.87,1684397537.265625
132.76,1684397537.28125
80.05,1684397537.296875
23.07,1684397537.3125
-34.94,1684397537.328125
-92.44,1684397537.34375
-149.16,1684397537.359375
-205.23,1684397537.375
-260.37,1684397537.390625
-313.74,1684397537.40625
-363.88,1684397537.421875
-409.83,1684397537.4375
-450.90,1684397537.453125
-486.49,1684397537.46875
-515.72,1684397537.484375
-537.19,1684397537.5
-549.17,1684397537.515625
-549.88,1684397537.53125
-538.26,1684397537.546875
-514.06,1684397537.5625
-478.48,1684397537.578125
-433.64,1684397537.59375
-382.16,1684397537.609375
-326.67,1684397537.625
-269.43,1684397537.640625
-212.16,1684397537.65625
-156.12,1684397537.671875
-102.34,1684397537.6875
-51.69,1684397537.703125
-5.15,1684397537.71875
36.41,1684397537.734375
72.33,1684397537.75
102.34,1684397537.765625
126.58,1684397537.78125
145.56,1684397537.796875
159.98,1684397537.8125
170.55,1684397537.828125
177.90,1684397537.84375
182.42,1684397537.859375
184.40,1684397537.875
184.07,1684397537.890625
181.71,1684397537.90625
177.66,1684397537.921875
172.33,1684397537.9375
166.13,1684397537.953125
159.41,1684397537.96875
152.41,1684397537.984375
145.27,1684397538.0
138.08,1684397538.015625
130.86,1684397538.03125
123.68,1684397538.046875
116.58,1684397538.0625
109.65,1684397538.078125
102.94,1684397538.09375
96.52,1684397538.109375
90.42,1684397538.125
84.64,1684397538.140625
79.22,1684397538.15625
74.14,1684397538.171875
69.43,1684397538.1875
65.10,1684397538.203125
61.14,1684397538.21875
57.57,1684397538.234375
54.38,1684397538.25
51.55,1684397538.265625
49.10,1684397538.28125
47.03,1684397538.296875
45.33,1684397538.3125
44.00,1684397538.328125
43.01,1684397538.34375
42.35,1684397538.359375
41.97,1684397538.375
41.76,1684397538.390625
41.63,1684397538.40625
41.41,1684397538.421875
40.94,1684397538.4375
40.04,1684397538.453125
38.53,1684397538.46875
36.29,1684397538.484375
33.21,1684397538.5
29.29,1684397538.515625
24.58,1684397538.53125
19.13,1684397538.546875
13.15,1684397538.5625
6.87,1684397538.578125
0.56,1684397538.59375
-5.52,1684397538.609375
-11.11,1684397538.625
-15.99,1684397538.640625
-20.00,1684397538.65625
-23.04,1684397538.671875
-25.09,1684397538.6875
-26.16,1684397538.703125
-26.34,1684397538.71875
-25.76,1684397538.734375
-24.54,1684397538.75
-22.85,1684397538.765625
-20.81,1684397538.78125
-18.55,1684397538.796875
-16.15,1684397538.8125
-13.66,1684397538.828125
-11.12,1684397538.84375
-8.58,1684397538.859375
-6.05,1684397538.875
-3.56,1684397538.890625
-1.07,1684397538.90625
1.42,1684397538.921875
3.94,1684397538.9375
6.50,1684397538.953125
9.12,1684397538.96875
11.85,1684397538.984375
14.64,1684397539.0
17.48,1684397539.015625
20.34,1684397539.03125
23.24,1684397539.046875
26.19,1684397539.0625
29.19,1684397539.078125
32.31,1684397539.09375
35.61,1684397539.109375
39.14,1684397539.125
42.87,1684397539.140625
46.77,1684397539.15625
50.81,1684397539.171875
55.02,1684397539.1875
59.38,1684397539.203125
63.96,1684397539.21875
68.79,1684397539.234375
73.94,1684397539.25
79.53,1684397539.265625
85.42,1684397539.28125
91.55,1684397539.296875
97.87,1684397539.3125
104.34,1684397539.328125
110.92,1684397539.34375
117.57,1684397539.359375
124.23,1684397539.375
130.87,1684397539.390625
137.47,1684397539.40625
143.67,1684397539.421875
149.20,1684397539.4375
153.77,1684397539.453125
157.13,1684397539.46875
159.00,1684397539.484375
159.00,1684397539.5
156.68,1684397539.515625
151.34,1684397539.53125
144.40,1684397539.546875
136.41,1684397539.5625
127.79,1684397539.578125
118.83,1684397539.59375
109.81,1684397539.609375
100.92,1684397539.625
92.39,1684397539.640625
84.41,1684397539.65625
77.16,1684397539.671875
70.86,1684397539.6875
65.34,1684397539.703125
60.50,1684397539.71875
56.25,1684397539.734375
52.49,1684397539.75
49.13,1684397539.765625
46.04,1684397539.78125
43.15,1684397539.796875
40.39,1684397539.8125
37.78,1684397539.828125
35.10,1684397539.84375
32.27,1684397539.859375
29.25,1684397539.875
26.07,1684397539.890625
22.79,1684397539.90625
19.51,1684397539.921875
16.35,1684397539.9375
13.45,1684397539.953125
10.94,1684397539.96875
8.80,1684397539.984375
7.03,1684397540.0
5.64,1684397540.015625
4.59,1684397540.03125
3.87,1684397540.046875
3.44,1684397540.0625
3.23,1684397540.078125
3.23,1684397540.09375
3.38,1684397540.109375
3.60,1684397540.125
3.80,1684397540.140625
3.92,1684397540.15625
3.92,1684397540.171875
3.81,1684397540.1875
3.57,1684397540.203125
3.25,1684397540.21875
2.86,1684397540.234375
2.40,1684397540.25
1.88,1684397540.265625
1.27,1684397540.28125
0.56,1684397540.296875
-0.23,1684397540.3125
-1.12,1684397540.328125
-2.05,1684397540.34375
-3.04,1684397540.359375
-4.02,1684397540.375
-5.00,1684397540.390625
-5.89,1684397540.40625
-6.68,1684397540.421875
-7.29,1684397540.4375
-7.71,1684397540.453125
-7.89,1684397540.46875
-7.85,1684397540.484375
-7.66,1684397540.5
-7.41,1684397540.515625
-7.26,1684397540.53125
-7.32,1684397540.546875
-7.70,1684397540.5625
-8.42,1684397540.578125
-9.51,1684397540.59375
-10.88,1684397540.609375
-12.46,1684397540.625
-14.15,1684397540.640625
-15.89,1684397540.65625
-17.63,1684397540.671875
-19.35,1684397540.6875
-21.04,1684397540.703125
-22.65,1684397540.71875
-24.09,1684397540.734375
-25.25,1684397540.75
-26.10,1684397540.765625
-26.69,1684397540.78125
-27.16,1684397540.796875
-27.74,1684397540.8125
-28.66,1684397540.828125
-30.05,1684397540.84375
-31.87,1684397540.859375
-33.95,1684397540.875
-36.03,1684397540.890625
-37.85,1684397540.90625
-39.36,1684397540.921875
-40.71,1684397540.9375
-42.27,1684397540.953125
-44.46,1684397540.96875
-47.51,1684397540.984375
-51.46,1684397541.0
-56.05,1684397541.015625
-60.90,1684397541.03125
-65.73,1684397541.046875
-70.54,1684397541.0625
-75.73,1684397541.078125
-81.95,1684397541.09375
-89.84,1684397541.109375
-99.78,1684397541.125
-111.65,1684397541.140625
-124.95,1684397541.15625
-138.90,1684397541.171875
-152.83,1684397541.1875
-166.43,1684397541.203125
-179.84,1684397541.21875
-193.56,1684397541.234375
-208.29,1684397541.25
-224.89,1684397541.265625
-244.15,1684397541.28125
-266.59,1684397541.296875
-291.84,1684397541.3125
-318.23,1684397541.328125
-342.74,1684397541.34375
-361.48,1684397541.359375
-370.94,1684397541.375
-369.19,1684397541.390625
-356.57,1684397541.40625
-335.50,1684397541.421875
-309.48,1684397541.4375
-281.73,1684397541.453125
-254.31,1684397541.46875
-228.04,1684397541.484375
-203.05,1684397541.5
-179.50,1684397541.515625
-157.86,1684397541.53125
-138.90,1684397541.546875
-123.07,1684397541.5625
-110.10,1684397541.578125
-99.05,1684397541.59375
-88.69,1684397541.609375
-78.15,1684397541.625
-67.19,1684397541.640625
-56.36,1684397541.65625
-46.57,1684397541.671875
-38.57,1684397541.6875
-32.53,1684397541.703125
-27.97,1684397541.71875
-24.06,1684397541.734375
-19.93,1684397541.75
-15.27,1684397541.765625
-10.28,1684397541.78125
-5.63,1684397541.796875
-2.09,1684397541.8125
-0.07,1684397541.828125
0.50,1684397541.84375
0.06,1684397541.859375
-0.66,1684397541.875
-1.08,1684397541.890625
-0.89,1684397541.90625
-0.27,1684397541.921875
0.32,1684397541.9375
0.27,1684397541.953125
-0.97,1684397541.96875
-3.64,1684397541.984375
-7.61,1684397542.0
-12.42,1684397542.015625
-17.35,1684397542.03125
-21.46,1684397542.046875
-23.71,1684397542.0625
-23.15,1684397542.078125
-19.07,1684397542.09375
-11.21,1684397542.109375
0.04,1684397542.125
13.53,1684397542.140625
27.74,1684397542.15625
41.10,1684397542.171875
52.36,1684397542.1875
60.97,1684397542.203125
66.96,1684397542.21875
70.72,1684397542.234375
72.68,1684397542.25
73.10,1684397542.265625
72.02,1684397542.28125
69.50,1684397542.296875
65.67,1684397542.3125
60.97,1684397542.328125
55.98,1684397542.34375
51.25,1684397542.359375
47.14,1684397542.375
43.74,1684397542.390625
41.02,1684397542.40625
38.79,1684397542.421875
36.91,1684397542.4375
35.30,1684397542.453125
33.85,1684397542.46875
32.37,1684397542.484375
30.60,1684397542.5
28.32,1684397542.515625
25.39,1684397542.53125
21.89,1684397542.546875
18.13,1684397542.5625
14.46,1684397542.578125
11.20,1684397542.59375
8.44,1684397542.609375
6.10,1684397542.625
3.87,1684397542.640625
1.47,1684397542.65625
-1.28,1684397542.671875
-4.28,1684397542.6875
-7.25,1684397542.703125
-9.90,1684397542.71875
-12.07,1684397542.734375
-13.88,1684397542.75
-15.69,1684397542.765625
-17.99,1684397542.78125
-21.12,1684397542.796875
-25.07,1684397542.8125
-29.46,1684397542.828125
-33.54,1684397542.84375
-36.30,1684397542.859375
-36.66,1684397542.875
-33.75,1684397542.890625
-27.09,1684397542.90625
-16.78,1684397542.921875
-3.75,1684397542.9375
10.51,1684397542.953125
24.24,1684397542.96875
35.92,1684397542.984375
44.67,1684397543.0
50.42,1684397543.015625
53.70,1684397543.03125
55.20,1684397543.046875
55.56,1684397543.0625
54.99,1684397543.078125
53.55,1684397543.09375
51.27,1684397543.109375
48.34,1684397543.125
45.18,1684397543.140625
42.14,1684397543.15625
39.48,1684397543.171875
37.18,1684397543.1875
35.03,1684397543.203125
32.90,1684397543.21875
30.78,1684397543.234375
28.88,1684397543.25
27.47,1684397543.265625
26.66,1684397543.28125
26.23,1684397543.296875
25.74,1684397543.3125
24.66,1684397543.328125
22.60,1684397543.34375
19.48,1684397543.359375
15.58,1684397543.375
11.39,1684397543.390625
7.37,1684397543.40625
3.98,1684397543.421875
1.41,1684397543.4375
-0.31,1684397543.453125
-1.30,1684397543.46875
-1.92,1684397543.484375
-2.47,1684397543.5
-3.32,1684397543.515625
-4.70,1684397543.53125
-6.75,1684397543.546875
-9.36,1684397543.5625
-12.35,1684397543.578125
-15.49,1684397543.59375
-18.63,1684397543.609375
-21.80,1684397543.625
-25.11,1684397543.640625
-28.76,1684397543.65625
-32.77,1684397543.671875
-36.91,1684397543.6875
-40.63,1684397543.703125
-43.02,1684397543.71875
-43.07,1684397543.734375
-39.88,1684397543.75
-33.05,1684397543.765625
-22.79,1684397543.78125
-10.07,1684397543.796875
3.64,1684397543.8125
16.79,1684397543.828125
28.10,1684397543.84375
36.91,1684397543.859375
43.08,1684397543.875
46.99,1684397543.890625
49.07,1684397543.90625
49.73,1684397543.921875
49.17,1684397543.9375
47.53,1684397543.953125
45.03,1684397543.96875
41.93,1684397543.984375
38.54,1684397544.0
35.10,1684397544.015625
31.83,1684397544.03125
28.83,1684397544.046875
26.20,1684397544.0625
24.05,1684397544.078125
22.47,1684397544.09375
21.48,1684397544.109375
20.96,1684397544.125
20.72,1684397544.140625
20.49,1684397544.15625
20.10,1684397544.171875
19.45,1684397544.1875
18.50,1684397544.203125
17.23,1684397544.21875
15.57,1684397544.234375
13.44,1684397544.25
10.77,1684397544.265625
7.64,1684397544.28125
4.24,1684397544.296875
0.83,1684397544.3125
-2.28,1684397544.328125
-4.90,1684397544.34375
-7.04,1684397544.359375
-8.94,1684397544.375
-10.83,1684397544.390625
-12.92,1684397544.40625
-15.20,1684397544.421875
-17.47,1684397544.4375
-19.56,1684397544.453125
-21.26,1684397544.46875
-22.57,1684397544.484375
-23.60,1684397544.5
-24.52,1684397544.515625
-25.47,1684397544.53125
-26.59,1684397544.546875
-27.96,1684397544.5625
-29.53,1684397544.578125
-31.24,1684397544.59375
-32.71,1684397544.609375
-33.37,1684397544.625
-32.40,1684397544.640625
-28.93,1684397544.65625
-22.49,1684397544.671875
-13.11,1684397544.6875
-1.49,1684397544.703125
11.14,1684397544.71875
23.39,1684397544.734375
34.07,1684397544.75
42.34,1684397544.765625
47.95,1684397544.78125
51.05,1684397544.796875
52.01,1684397544.8125
51.24,1684397544.828125
49.11,1684397544.84375
46.04,1684397544.859375
42.33,1684397544.875
38.32,1684397544.890625
34.27,1684397544.90625
30.34,1684397544.921875
26.63,1684397544.9375
23.11,1684397544.953125
19.75,1684397544.96875
16.61,1684397544.984375
13.73,1684397545.0
11.14,1684397545.015625
8.77,1684397545.03125
6.48,1684397545.046875
4.11,1684397545.0625
1.59,1684397545.078125
-1.04,1684397545.09375
-3.64,1684397545.109375
-6.09,1684397545.125
-8.39,1684397545.140625
-10.54,1684397545.15625
-12.61,1684397545.171875
-14.57,1684397545.1875
-16.37,1684397545.203125
-17.98,1684397545.21875
-19.50,1684397545.234375
-21.03,1684397545.25
-22.65,1684397545.265625
-24.35,1684397545.28125
-25.92,1684397545.296875
-27.13,1684397545.3125
-27.84,1684397545.328125
-28.16,1684397545.34375
-28.37,1684397545.359375
-28.91,1684397545.375
-30.19,1684397545.390625
-32.45,1684397545.40625
-35.54,1684397545.421875
-39.00,1684397545.4375
-41.85,1684397545.453125
-43.02,1684397545.46875
-41.39,1684397545.484375
-36.31,1684397545.5
-27.67,1684397545.515625
-16.15,1684397545.53125
-3.06,1684397545.546875
10.14,1684397545.5625
22.06,1684397545.578125
31.83,1684397545.59375
38.98,1684397545.609375
43.61,1684397545.625
45.98,1684397545.640625
46.49,1684397545.65625
45.54,1684397545.671875
43.51,1684397545.6875
40.82,1684397545.703125
37.93,1684397545.71875
35.29,1684397545.734375
33.14,1684397545.75
31.70,1684397545.765625
30.87,1684397545.78125
30.46,1684397545.796875
30.15,1684397545.8125
29.66,1684397545.828125
28.81,1684397545.84375
27.52,1684397545.859375
25.88,1684397545.875
24.02,1684397545.890625
21.97,1684397545.90625
19.67,1684397545.921875
17.03,1684397545.9375
13.97,1684397545.953125
10.56,1684397545.96875
7.06,1684397545.984375
3.77,1684397546.0
0.96,1684397546.015625
-1.28,1684397546.03125
-3.12,1684397546.046875
-4.78,1684397546.0625
-6.54,1684397546.078125
-8.54,1684397546.09375
-10.88,1684397546.109375
-13.51,1684397546.125
-16.27,1684397546.140625
-18.97,1684397546.15625
-21.42,1684397546.171875
-23.59,1684397546.1875
-25.67,1684397546.203125
-28.06,1684397546.21875
-31.12,1684397546.234375
-35.10,1684397546.25
-39.78,1684397546.265625
-44.52,1684397546.28125
-48.38,1684397546.296875
-50.17,1684397546.3125
-48.95,1684397546.328125
-44.01,1684397546.34375
-35.30,1684397546.359375
-23.36,1684397546.375
-9.35,1684397546.390625
5.20,1684397546.40625
18.77,1684397546.421875
30.11,1684397546.4375
38.62,1684397546.453125
44.37,1684397546.46875
47.87,1684397546.484375
49.75,1684397546.5
50.50,1684397546.515625
50.36,1684397546.53125
49.29,1684397546.546875
47.26,1684397546.5625
44.32,1684397546.578125
40.63,1684397546.59375
36.54,1684397546.609375
32.32,1684397546.625
28.16,1684397546.640625
24.13,1684397546.65625
20.24,1684397546.671875
16.52,1684397546.6875
13.14,1684397546.703125
10.29,1684397546.71875
8.12,1684397546.734375
6.74,1684397546.75
5.97,1684397546.765625
5.53,1684397546.78125
5.05,1684397546.796875
4.28,1684397546.8125
3.08,1684397546.828125
1.49,1684397546.84375
-0.26,1684397546.859375
-1.97,1684397546.875
-3.46,1684397546.890625
-4.75,1684397546.90625
-5.86,1684397546.921875
-6.91,1684397546.9375
-7.99,1684397546.953125
-9.15,1684397546.96875
-10.38,1684397546.984375
-11.62,1684397547.0
-12.82,1684397547.015625
-13.85,1684397547.03125
-14.71,1684397547.046875
-15.41,1684397547.0625
-16.03,1684397547.078125
-16.83,1684397547.09375
-18.04,1684397547.109375
-19.97,1684397547.125
-22.79,1684397547.140625
-26.53,1684397547.15625
-30.93,1684397547.171875
-35.37,1684397547.1875
-38.90,1684397547.203125
-40.40,1684397547.21875
-38.95,1684397547.234375
-33.96,1684397547.25
-25.55,1684397547.265625
-14.57,1684397547.28125
-2.37,1684397547.296875
9.61,1684397547.3125
20.23,1684397547.328125
28.80,1684397547.34375
35.18,1684397547.359375
39.45,1684397547.375
41.85,1684397547.390625
42.55,1684397547.40625
41.69,1684397547.421875
39.52,1684397547.4375
36.38,1684397547.453125
32.71,1684397547.46875
28.89,1684397547.484375
25.25,1684397547.5
21.84,1684397547.515625
18.59,1684397547.53125
15.37,1684397547.546875
12.16,1684397547.5625
9.10,1684397547.578125
6.38,1684397547.59375
4.15,1684397547.609375
2.43,1684397547.625
1.06,1684397547.640625
-0.16,1684397547.65625
-1.26,1684397547.671875
-2.17,1684397547.6875
-2.72,1684397547.703125
-2.73,1684397547.71875
-2.35,1684397547.734375
-1.93,1684397547.75
-1.97,1684397547.765625
-2.85,1684397547.78125
-4.76,1684397547.796875
-7.58,1684397547.8125
-11.04,1684397547.828125
-14.83,1684397547.84375
-18.57,1684397547.859375
-22.03,1684397547.875
-25.01,1684397547.890625
-27.43,1684397547.90625
-29.44,1684397547.921875
-31.34,1684397547.9375
-33.45,1684397547.953125
-35.97,1684397547.96875
-38.77,1684397547.984375
-41.19,1684397548.0
-42.34,1684397548.015625
-41.12,1684397548.03125
-36.66,1684397548.046875
-28.76,1684397548.0625
-17.95,1684397548.078125
-5.36,1684397548.09375
7.45,1684397548.109375
19.16,1684397548.125
28.83,1684397548.140625
36.06,1684397548.15625
40.85,1684397548.171875
43.47,1684397548.1875
44.06,1684397548.203125
42.76,1684397548.21875
39.82,1684397548.234375
35.77,1684397548.25
31.29,1684397548.265625
27.06,1684397548.28125
23.65,1684397548.296875
21.18,1684397548.3125
19.56,1684397548.328125
18.50,1684397548.34375
17.71,1684397548.359375
16.96,1684397548.375
16.17,1684397548.390625
15.27,1684397548.40625
14.23,1684397548.421875
13.02,1684397548.4375
11.59,1684397548.453125
10.09,1684397548.46875
8.63,1684397548.484375
7.31,1684397548.5
6.15,1684397548.515625
4.99,1684397548.53125
3.68,1684397548.546875
2.07,1684397548.5625
0.21,1684397548.578125
-1.67,1684397548.59375
-3.24,1684397548.609375
-4.37,1684397548.625
-5.16,1684397548.640625
-5.87,1684397548.65625
-7.00,1684397548.671875
-8.82,1684397548.6875
-11.29,1684397548.703125
-14.12,1684397548.71875
-16.96,1684397548.734375
-19.52,1684397548.75
-21.70,1684397548.765625
-23.73,1684397548.78125
-25.80,1684397548.796875
-28.13,1684397548.8125
-30.92,1684397548.828125
-34.17,1684397548.84375
-37.82,1684397548.859375
-41.63,1684397548.875
-45.12,1684397548.890625
-47.48,1684397548.90625
-47.61,1684397548.921875
-44.43,1684397548.9375
-37.19,1684397548.953125
-25.96,1684397548.96875
-11.58,1684397548.984375
4.31,1684397549.0
19.83,1684397549.015625
33.30,1684397549.03125
43.68,1684397549.046875
50.72,1684397549.0625
54.64,1684397549.078125
55.95,1684397549.09375
55.13,1684397549.109375
52.58,1684397549.125
48.52,1684397549.140625
43.39,1684397549.15625
37.68,1684397549.171875
31.93,1684397549.1875
26.66,1684397549.203125
22.15,1684397549.21875
18.60,1684397549.234375
15.96,1684397549.25
14.24,1684397549.265625
13.34,1684397549.28125
13.19,1684397549.296875
13.63,1684397549.3125
14.37,1684397549.328125
15.07,1684397549.34375
15.32,1684397549.359375
14.77,1684397549.375
13.24,1684397549.390625
10.68,1684397549.40625
7.29,1684397549.421875
3.37,1684397549.4375
-0.67,1684397549.453125
-4.53,1684397549.46875
-7.92,1684397549.484375
-10.72,1684397549.5
-12.73,1684397549.515625
-13.86,1684397549.53125
-14.16,1684397549.546875
-13.78,1684397549.5625
-13.09,1684397549.578125
-12.46,1684397549.59375
-12.23,1684397549.609375
-12.59,1684397549.625
-13.58,1684397549.640625
-14.95,1684397549.65625
-16.46,1684397549.671875
-17.86,1684397549.6875
-18.97,1684397549.703125
-19.82,1684397549.71875
-20.53,1684397549.734375
-21.37,1684397549.75
-22.65,1684397549.765625
-24.58,1684397549.78125
-27.17,1684397549.796875
-30.00,1684397549.8125
-32.32,1684397549.828125
-33.07,1684397549.84375
-31.22,1684397549.859375
-26.08,1684397549.875
-17.71,1684397549.890625
-6.93,1684397549.90625
4.98,1684397549.921875
16.48,1684397549.9375
26.36,1684397549.953125
33.97,1684397549.96875
39.18,1684397549.984375
42.25,1684397550.0
43.53,1684397550.015625
43.37,1684397550.03125
42.04,1684397550.046875
39.75,1684397550.0625
36.72,1684397550.078125
33.21,1684397550.09375
29.48,1684397550.109375
25.85,1684397550.125
22.45,1684397550.140625
19.35,1684397550.15625
16.55,1684397550.171875
13.94,1684397550.1875
11.43,1684397550.203125
9.00,1684397550.21875
6.75,1684397550.234375
4.78,1684397550.25
3.12,1684397550.265625
1.70,1684397550.28125
0.21,1684397550.296875
-1.60,1684397550.3125
-3.84,1684397550.328125
-6.41,1684397550.34375
-8.94,1684397550.359375
-10.96,1684397550.375
-12.15,1684397550.390625
-12.50,1684397550.40625
-12.27,1684397550.421875
-11.87,1684397550.4375
-11.75,1684397550.453125
-12.02,1684397550.46875
-12.65,1684397550.484375
-13.37,1684397550.5
-14.09,1684397550.515625
-14.84,1684397550.53125
-15.82,1684397550.546875
-17.36,1684397550.5625
-19.76,1684397550.578125
-23.17,1684397550.59375
-27.48,1684397550.609375
-32.38,1684397550.625
-37.12,1684397550.640625
-40.77,1684397550.65625
-42.33,1684397550.671875
-40.87,1684397550.6875
-35.85,1684397550.703125
-27.33,1684397550.71875
-16.10,1684397550.734375
-3.39,1684397550.75
9.26,1684397550.765625
20.52,1684397550.78125
29.51,1684397550.796875
35.85,1684397550.8125
39.74,1684397550.828125
41.66,1684397550.84375
42.12,1684397550.859375
41.54,1684397550.875
40.08,1684397550.890625
37.69,1684397550.90625
34.32,1684397550.921875
30.18,1684397550.9375
25.58,1684397550.953125
21.05,1684397550.96875
16.95,1684397550.984375
13.52,1684397551.0
10.71,1684397551.015625
8.39,1684397551.03125
6.54,1684397551.046875
5.27,1684397551.0625
4.71,1684397551.078125
4.80,1684397551.09375
5.35,1684397551.109375
5.87,1684397551.125
5.86,1684397551.140625
5.05,1684397551.15625
3.49,1684397551.171875
1.56,1684397551.1875
-0.33,1684397551.203125
-1.74,1684397551.21875
-2.61,1684397551.234375
-3.01,1684397551.25
-3.20,1684397551.265625
-3.48,1684397551.28125
-4.02,1684397551.296875
-4.95,1684397551.3125
-6.11,1684397551.328125
-7.38,1684397551.34375
-8.64,1684397551.359375
-9.88,1684397551.375
-11.18,1684397551.390625
-12.69,1684397551.40625
-14.66,1684397551.421875
-17.25,1684397551.4375
-20.64,1684397551.453125
-24.89,1684397551.46875
-29.89,1684397551.484375
-35.19,1684397551.5
-40.06,1684397551.515625
-43.49,1684397551.53125
-44.44,1684397551.546875
-42.13,1684397551.5625
-36.20,1684397551.578125
-27.11,1684397551.59375
-15.81,1684397551.609375
-3.60,1684397551.625
8.13,1684397551.640625
18.26,1684397551.65625
26.08,1684397551.671875
31.48,1684397551.6875
34.66,1684397551.703125
36.18,1684397551.71875
36.55,1684397551.734375
36.12,1684397551.75
35.01,1684397551.765625
33.18,1684397551.78125
30.68,1684397551.796875
27.69,1684397551.8125
24.56,1684397551.828125
21.62,1684397551.84375
19.17,1684397551.859375
17.19,1684397551.875
15.54,1684397551.890625
14.08,1684397551.90625
12.70,1684397551.921875
11.46,1684397551.9375
10.45,1684397551.953125
9.76,1684397551.96875
9.33,1684397551.984375
9.04,1684397552.0
8.69,1684397552.015625
8.07,1684397552.03125
7.10,1684397552.046875
5.71,1684397552.0625
4.00,1684397552.078125
2.17,1684397552.09375
0.41,1684397552.109375
-1.06,1684397552.125
-2.22,1684397552.140625
-3.14,1684397552.15625
-4.04,1684397552.171875
-5.04,1684397552.1875
-6.20,1684397552.203125
-7.52,1684397552.21875
-8.91,1684397552.234375
-10.33,1684397552.25
-11.69,1684397552.265625
-12.93,1684397552.28125
-14.02,1684397552.296875
-14.99,1684397552.3125
-15.95,1684397552.328125
-17.20,1684397552.34375
-19.04,1684397552.359375
-21.71,1684397552.375
-25.23,1684397552.390625
-29.20,1684397552.40625
-32.93,1684397552.421875
-35.49,1684397552.4375
-36.02,1684397552.453125
-33.84,1684397552.46875
-28.77,1684397552.484375
-21.11,1684397552.5
-11.52,1684397552.515625
-1.08,1684397552.53125
9.07,1684397552.546875
17.91,1684397552.5625
24.81,1684397552.578125
29.58,1684397552.59375
32.42,1684397552.609375
33.83,1684397552.625
34.24,1684397552.640625
34.07,1684397552.65625
33.47,1684397552.671875
32.54,1684397552.6875
31.25,1684397552.703125
29.59,1684397552.71875
27.64,1684397552.734375
25.42,1684397552.75
22.92,1684397552.765625
20.15,1684397552.78125
17.19,1684397552.796875
14.05,1684397552.8125
10.80,1684397552.828125
7.57,1684397552.84375
4.43,1684397552.859375
1.55,1684397552.875
-1.01,1684397552.890625
-3.17,1684397552.90625
-4.91,1684397552.921875
-6.25,1684397552.9375
-7.28,1684397552.953125
-8.03,1684397552.96875
-8.59,1684397552.984375
-9.06,1684397553.0
-9.58,1684397553.015625
-10.36,1684397553.03125
-11.55,1684397553.046875
-13.19,1684397553.0625
-15.26,1684397553.078125
-17.58,1684397553.09375
-19.81,1684397553.109375
-21.67,1684397553.125
-23.06,1684397553.140625
-24.13,1684397553.15625
-25.37,1684397553.171875
-27.39,1684397553.1875
-30.64,1684397553.203125
-35.14,1684397553.21875
-40.24,1684397553.234375
-44.63,1684397553.25
-46.76,1684397553.265625
-45.28,1684397553.28125
-39.51,1684397553.296875
-29.62,1684397553.3125
-16.71,1684397553.328125
-2.35,1684397553.34375
11.77,1684397553.359375
24.27,1684397553.375
34.23,1684397553.390625
41.25,1684397553.40625
45.43,1684397553.421875
47.07,1684397553.4375
46.72,1684397553.453125
44.92,1684397553.46875
42.12,1684397553.484375
38.73,1684397553.5
35.09,1684397553.515625
31.47,1684397553.53125
28.06,1684397553.546875
24.92,1684397553.5625
22.08,1684397553.578125
19.43,1684397553.59375
16.89,1684397553.609375
14.46,1684397553.625
12.17,1684397553.640625
10.16,1684397553.65625
8.53,1684397553.671875
7.26,1684397553.6875
6.25,1684397553.703125
5.23,1684397553.71875
3.87,1684397553.734375
2.04,1684397553.75
-0.38,1684397553.765625
-3.16,1684397553.78125
-5.94,1684397553.796875
-8.26,1684397553.8125
-9.75,1684397553.828125
-10.22,1684397553.84375
-9.72,1684397553.859375
-8.66,1684397553.875
-7.47,1684397553.890625
-6.77,1684397553.90625
-6.88,1684397553.921875
-7.91,1684397553.9375
-9.69,1684397553.953125
-11.86,1684397553.96875
-14.08,1684397553.984375
-16.16,1684397554.0
-18.15,1684397554.015625
-20.30,1684397554.03125
-22.86,1684397554.046875
-26.01,1684397554.0625
-29.67,1684397554.078125
-33.60,1684397554.09375
-37.20,1684397554.109375
-39.67,1684397554.125
-40.18,1684397554.140625
-37.92,1684397554.15625
-32.37,1684397554.171875
-23.63,1684397554.1875
-12.48,1684397554.203125
-0.18,1684397554.21875
11.61,1684397554.234375
21.62,1684397554.25
29.11,1684397554.265625
33.96,1684397554.28125
36.63,1684397554.296875
37.77,1684397554.3125
37.83,1684397554.328125
37.07,1684397554.34375
35.58,1684397554.359375
33.43,1684397554.375
30.80,1684397554.390625
28.01,1684397554.40625
25.34,1684397554.421875
23.04,1684397554.4375
21.17,1684397554.453125
19.61,1684397554.46875
18.19,1684397554.484375
16.77,1684397554.5
15.30,1684397554.515625
13.87,1684397554.53125
12.57,1684397554.546875
11.31,1684397554.5625
10.00,1684397554.578125
8.34,1684397554.59375
6.11,1684397554.609375
3.33,1684397554.625
0.26,1684397554.640625
-2.61,1684397554.65625
-4.79,1684397554.671875
-5.86,1684397554.6875
-5.81,1684397554.703125
-4.83,1684397554.71875
-3.32,1684397554.734375
-1.73,1684397554.75
-0.38,1684397554.765625
0.41,1684397554.78125
0.42,1684397554.796875
-0.45,1684397554.8125
-2.15,1684397554.828125
-4.58,1684397554.84375
-7.50,1684397554.859375
-10.61,1684397554.875
-13.71,1684397554.890625
-16.74,1684397554.90625
-19.79,1684397554.921875
-23.02,1684397554.9375
-26.61,1684397554.953125
-30.55,1684397554.96875
-34.66,1684397554.984375
-38.44,1684397555.0
-41.24,1684397555.015625
-42.36,1684397555.03125
-41.02,1684397555.046875
-36.76,1684397555.0625
-29.50,1684397555.078125
-19.72,1684397555.09375
-8.40,1684397555.109375
3.17,1684397555.125
13.62,1684397555.140625
22.02,1684397555.15625
27.86,1684397555.171875
31.22,1684397555.1875
32.61,1684397555.203125
32.60,1684397555.21875
31.76,1684397555.234375
30.26,1684397555.25
28.20,1684397555.265625
25.57,1684397555.28125
22.45,1684397555.296875
19.06,1684397555.3125
15.65,1684397555.328125
12.53,1684397555.34375
9.85,1684397555.359375
7.78,1684397555.375
6.36,1684397555.390625
5.78,1684397555.40625
6.08,1684397555.421875
7.30,1684397555.4375
9.25,1684397555.453125
11.43,1684397555.46875
13.20,1684397555.484375
13.91,1684397555.5
13.17,1684397555.515625
10.93,1684397555.53125
7.57,1684397555.546875
3.77,1684397555.5625
0.10,1684397555.578125
-3.10,1684397555.59375
-5.88,1684397555.609375
-8.45,1684397555.625
-11.10,1684397555.640625
-13.92,1684397555.65625
-16.73,1684397555.671875
-19.24,1684397555.6875
-21.24,1684397555.703125
-22.89,1684397555.71875
-24.47,1684397555.734375
-26.59,1684397555.75
-29.61,1684397555.765625
-33.64,1684397555.78125
-38.32,1684397555.796875
-42.92,1684397555.8125
-46.53,1684397555.828125
-48.08,1684397555.84375
-46.64,1684397555.859375
-41.55,1684397555.875
-32.65,1684397555.890625
-20.45,1684397555.90625
-6.08,1684397555.921875
8.85,1684397555.9375
22.67,1684397555.953125
33.91,1684397555.96875
41.77,1684397555.984375
46.05,1684397556.0
47.18,1684397556.015625
45.92,1684397556.03125
43.08,1684397556.046875
39.39,1684397556.0625
35.26,1684397556.078125
31.02,1684397556.09375
26.85,1684397556.109375
22.90,1684397556.125
19.36,1684397556.140625
16.33,1684397556.15625
13.82,1684397556.171875
11.71,1684397556.1875
9.91,1684397556.203125
8.26,1684397556.21875
6.87,1684397556.234375
5.85,1684397556.25
5.45,1684397556.265625
5.72,1684397556.28125
6.45,1684397556.296875
7.28,1684397556.3125
7.68,1684397556.328125
7.33,1684397556.34375
6.13,1684397556.359375
4.33,1684397556.375
2.40,1684397556.390625
0.78,1684397556.40625
-0.22,1684397556.421875
-0.60,1684397556.4375
-0.56,1684397556.453125
-0.52,1684397556.46875
-0.75,1684397556.484375
-1.43,1684397556.5
-2.42,1684397556.515625
-3.48,1684397556.53125
-4.41,1684397556.546875
-5.16,1684397556.5625
-5.93,1684397556.578125
-7.21,1684397556.59375
-9.51,1684397556.609375
-13.33,1684397556.625
-18.93,1684397556.640625
-26.24,1684397556.65625
-34.73,1684397556.671875
-43.47,1684397556.6875
-51.09,1684397556.703125
-56.04,1684397556.71875
-56.95,1684397556.734375
-53.04,1684397556.75
-44.45,1684397556.765625
-32.16,1684397556.78125
-17.85,1684397556.796875
-3.26,1684397556.8125
10.14,1684397556.828125
21.49,1684397556.84375
30.53,1684397556.859375
37.33,1684397556.875
42.11,1684397556.890625
45.04,1684397556.90625
46.17,1684397556.921875
45.54,1684397556.9375
43.31,1684397556.953125
39.77,1684397556.96875
35.34,1684397556.984375
30.48,1684397557.0
25.46,1684397557.015625
20.55,1684397557.03125
15.88,1684397557.046875
11.66,1684397557.0625
8.13,1684397557.078125
5.49,1684397557.09375
3.83,1684397557.109375
3.01,1684397557.125
2.75,1684397557.140625
2.63,1684397557.15625
2.38,1684397557.171875
1.88,1684397557.1875
1.10,1684397557.203125
0.18,1684397557.21875
-0.83,1684397557.234375
-1.73,1684397557.25
-2.39,1684397557.265625
-2.64,1684397557.28125
-2.37,1684397557.296875
-1.58,1684397557.3125
-0.51,1684397557.328125
0.37,1684397557.34375
0.61,1684397557.359375
-0.15,1684397557.375
-2.01,1684397557.390625
-4.70,1684397557.40625
-7.81,1684397557.421875
-10.86,1684397557.4375
-13.54,1684397557.453125
-15.77,1684397557.46875
-17.79,1684397557.484375
-19.99,1684397557.5
-22.80,1684397557.515625
-26.39,1684397557.53125
-30.53,1684397557.546875
-34.68,1684397557.5625
-37.94,1684397557.578125
-39.43,1684397557.59375
-38.45,1684397557.609375
-34.75,1684397557.625
-28.51,1684397557.640625
-20.35,1684397557.65625
-11.13,1684397557.671875
-1.79,1684397557.6875
6.71,1684397557.703125
13.70,1684397557.71875
18.77,1684397557.734375
21.93,1684397557.75
23.50,1684397557.765625
23.96,1684397557.78125
23.72,1684397557.796875
23.08,1684397557.8125
22.27,1684397557.828125
21.32,1684397557.84375
20.28,1684397557.859375
19.22,1684397557.875
18.16,1684397557.890625
17.15,1684397557.90625
16.26,1684397557.921875
15.59,1684397557.9375
15.21,1684397557.953125
15.14,1684397557.96875
15.37,1684397557.984375
15.83,1684397558.0
16.41,1684397558.015625
16.76,1684397558.03125
16.64,1684397558.046875
15.75,1684397558.0625
13.94,1684397558.078125
11.24,1684397558.09375
7.91,1684397558.109375
4.37,1684397558.125
1.05,1684397558.140625
-1.79,1684397558.15625
-4.29,1684397558.171875
-6.59,1684397558.1875
-8.89,1684397558.203125
-11.12,1684397558.21875
-13.08,1684397558.234375
-14.46,1684397558.25
-15.12,1684397558.265625
-15.32,1684397558.28125
-15.53,1684397558.296875
-16.40,1684397558.3125
-18.45,1684397558.328125
-21.92,1684397558.34375
-26.70,1684397558.359375
-32.27,1684397558.375
-37.74,1684397558.390625
-41.93,1684397558.40625
-43.69,1684397558.421875
-41.98,1684397558.4375
-36.41,1684397558.453125
-27.22,1684397558.46875
-15.38,1684397558.484375
-2.42,1684397558.5
10.23,1684397558.515625
21.29,1684397558.53125
30.04,1684397558.546875
36.24,1684397558.5625
40.12,1684397558.578125
42.09,1684397558.59375
42.54,1684397558.609375
41.72,1684397558.625
39.71,1684397558.640625
36.67,1684397558.65625
32.78,1684397558.671875
28.41,1684397558.6875
23.95,1684397558.703125
19.74,1684397558.71875
15.98,1684397558.734375
12.62,1684397558.75
9.59,1684397558.765625
6.84,1684397558.78125
4.44,1684397558.796875
2.55,1684397558.8125
1.37,1684397558.828125
0.92,1684397558.84375
0.97,1684397558.859375
1.23,1684397558.875
1.26,1684397558.890625
0.84,1684397558.90625
-0.14,1684397558.921875
-1.53,1684397558.9375
-3.11,1684397558.953125
-4.73,1684397558.96875
-6.33,1684397558.984375
-8.09,1684397559.0
-10.17,1684397559.015625
-12.69,1684397559.03125
-15.53,1684397559.046875
-18.39,1684397559.0625
-20.81,1684397559.078125
-22.37,1684397559.09375
-22.83,1684397559.109375
-22.27,1684397559.125
-21.01,1684397559.140625
-19.61,1684397559.15625
-18.74,1684397559.171875
-18.99,1684397559.1875
-20.75,1684397559.203125
-24.26,1684397559.21875
-29.27,1684397559.234375
-35.08,1684397559.25
-40.56,1684397559.265625
-44.24,1684397559.28125
-44.65,1684397559.296875
-40.84,1684397559.3125
-32.68,1684397559.328125
-21.02,1684397559.34375
-7.49,1684397559.359375
6.00,1684397559.375
17.76,1684397559.390625
26.78,1684397559.40625
32.84,1684397559.421875
36.35,1684397559.4375
37.98,1684397559.453125
38.27,1684397559.46875
37.54,1684397559.484375
35.86,1684397559.5
33.38,1684397559.515625
30.34,1684397559.53125
27.19,1684397559.546875
24.42,1684397559.5625
22.32,1684397559.578125
20.85,1684397559.59375
19.79,1684397559.609375
18.84,1684397559.625
17.75,1684397559.640625
16.53,1684397559.65625
15.38,1684397559.671875
14.42,1684397559.6875
13.77,1684397559.703125
13.30,1684397559.71875
12.77,1684397559.734375
11.90,1684397559.75
10.41,1684397559.765625
8.26,1684397559.78125
5.60,1684397559.796875
2.79,1684397559.8125
0.32,1684397559.828125
-1.47,1684397559.84375
-2.49,1684397559.859375
-2.96,1684397559.875
-3.29,1684397559.890625
-3.88,1684397559.90625
-5.00,1684397559.921875
-6.63,1684397559.9375
-8.48,1684397559.953125
-10.28,1684397559.96875
-11.95,1684397559.984375
-13.63,1684397560.0
-15.64,1684397560.015625
-18.25,1684397560.03125
-21.58,1684397560.046875
-25.55,1684397560.0625
-29.96,1684397560.078125
-34.52,1684397560.09375
-38.79,1684397560.109375
-42.26,1684397560.125
-44.10,1684397560.140625
-43.56,1684397560.15625
-39.88,1684397560.171875
-32.89,1684397560.1875
-22.97,1684397560.203125
-11.10,1684397560.21875
1.31,1684397560.234375
12.99,1684397560.25
22.98,1684397560.265625
30.84,1684397560.28125
36.57,1684397560.296875
40.36,1684397560.3125
42.39,1684397560.328125
42.69,1684397560.34375
41.24,1684397560.359375
38.10,1684397560.375
33.60,1684397560.390625
28.30,1684397560.40625
22.98,1684397560.421875
18.30,1684397560.4375
14.74,1684397560.453125
12.40,1684397560.46875
11.14,1684397560.484375
10.72,1684397560.5
10.87,1684397560.515625
11.29,1684397560.53125
11.65,1684397560.546875
11.55,1684397560.5625
10.63,1684397560.578125
8.58,1684397560.59375
5.37,1684397560.609375
1.23,1684397560.625
-3.36,1684397560.640625
-7.85,1684397560.65625
-11.79,1684397560.671875
-14.94,1684397560.6875
-17.27,1684397560.703125
-18.90,1684397560.71875
-19.88,1684397560.734375
-20.28,1684397560.75
-20.13,1684397560.765625
-19.43,1684397560.78125
-18.42,1684397560.796875
-17.45,1684397560.8125
-16.95,1684397560.828125
-17.37,1684397560.84375
-19.10,1684397560.859375
-22.27,1684397560.875
-26.73,1684397560.890625
-31.85,1684397560.90625
-36.70,1684397560.921875
-40.04,1684397560.9375
-40.73,1684397560.953125
-38.02,1684397560.96875
-31.79,1684397560.984375
-22.68,1684397561.0
-11.74,1684397561.015625
-0.31,1684397561.03125
10.49,1684397561.046875
19.83,1684397561.0625
27.28,1684397561.078125
32.78,1684397561.09375
36.47,1684397561.109375
38.54,1684397561.125
39.15,1684397561.140625
38.50,1684397561.15625
36.67,1684397561.171875
33.94,1684397561.1875
30.66,1684397561.203125
27.15,1684397561.21875
23.81,1684397561.234375
20.90,1684397561.25
18.52,1684397561.265625
16.62,1684397561.28125
15.11,1684397561.296875
13.90,1684397561.3125
12.96,1684397561.328125
12.29,1684397561.34375
11.75,1684397561.359375
11.18,1684397561.375
10.19,1684397561.390625
8.56,1684397561.40625
6.16,1684397561.421875
3.14,1684397561.4375
-0.07,1684397561.453125
-3.04,1684397561.46875
-5.30,1684397561.484375
-6.85,1684397561.5
-7.86,1684397561.515625
-8.85,1684397561.53125
-10.33,1684397561.546875
-12.62,1684397561.5625
-15.75,1684397561.578125
-19.38,1684397561.59375
-23.13,1684397561.609375
-26.55,1684397561.625
-29.46,1684397561.640625
-31.99,1684397561.65625
-34.55,1684397561.671875
-37.58,1684397561.6875
-41.31,1684397561.703125
-45.84,1684397561.71875
-50.71,1684397561.734375
-55.17,1684397561.75
-58.00,1684397561.765625
-57.84,1684397561.78125
-53.46,1684397561.796875
-44.34,1684397561.8125
-30.87,1684397561.828125
-14.53,1684397561.84375
2.56,1684397561.859375
18.30,1684397561.875
31.11,1684397561.890625
40.40,1684397561.90625
46.51,1684397561.921875
50.23,1684397561.9375
52.43,1684397561.953125
53.51,1684397561.96875
53.59,1684397561.984375
52.59,1684397562.0
50.48,1684397562.015625
47.45,1684397562.03125
43.85,1684397562.046875
40.06,1684397562.0625
36.22,1684397562.078125
32.46,1684397562.09375
28.77,1684397562.109375
25.26,1684397562.125
22.19,1684397562.140625
19.87,1684397562.15625
18.53,1684397562.171875
17.98,1684397562.1875
17.91,1684397562.203125
17.65,1684397562.21875
16.62,1684397562.234375
14.39,1684397562.25
10.86,1684397562.265625
6.15,1684397562.28125
0.67,1684397562.296875
-5.02,1684397562.3125
-10.31,1684397562.328125
-14.57,1684397562.34375
-17.51,1684397562.359375
-19.12,1684397562.375
-19.77,1684397562.390625
-20.05,1684397562.40625
-20.53,1684397562.421875
-21.62,1684397562.4375
-23.29,1684397562.453125
-25.21,1684397562.46875
-26.88,1684397562.484375
-27.89,1684397562.5
-28.07,1684397562.515625
-27.66,1684397562.53125
-27.21,1684397562.546875
-27.32,1684397562.5625
-28.53,1684397562.578125
-30.88,1684397562.59375
-33.97,1684397562.609375
-36.82,1684397562.625
-38.10,1684397562.640625
-36.48,1684397562.65625
-30.94,1684397562.671875
-21.33,1684397562.6875
-8.37,1684397562.703125
6.32,1684397562.71875
20.73,1684397562.734375
32.96,1684397562.75
41.75,1684397562.765625
46.73,1684397562.78125
48.21,1684397562.796875
47.03,1684397562.8125
44.06,1684397562.828125
39.97,1684397562.84375
35.20,1684397562.859375
29.99,1684397562.875
24.51,1684397562.890625
19.03,1684397562.90625
13.93,1684397562.921875
9.64,1684397562.9375
6.52,1684397562.953125
4.71,1684397562.96875
4.06,1684397562.984375
4.18,1684397563.0
4.49,1684397563.015625
4.45,1684397563.03125
3.90,1684397563.046875
2.89,1684397563.0625
1.77,1684397563.078125
0.93,1684397563.09375
0.57,1684397563.109375
0.56,1684397563.125
0.58,1684397563.140625
0.22,1684397563.15625
-0.82,1684397563.171875
-2.52,1684397563.1875
-4.61,1684397563.203125
-6.70,1684397563.21875
-8.48,1684397563.234375
-9.77,1684397563.25
-10.66,1684397563.265625
-11.31,1684397563.28125
-11.96,1684397563.296875
-12.80,1684397563.3125
-13.81,1684397563.328125
-15.09,1684397563.34375
-16.73,1684397563.359375
-18.95,1684397563.375
-22.13,1684397563.390625
-26.50,1684397563.40625
-32.02,1684397563.421875
-38.17,1684397563.4375
-43.96,1684397563.453125
-47.92,1684397563.46875
-48.66,1684397563.484375
-45.14,1684397563.5
-37.19,1684397563.515625
-25.56,1684397563.53125
-11.81,1684397563.546875
2.10,1684397563.5625
14.47,1684397563.578125
24.15,1684397563.59375
30.93,1684397563.609375
35.15,1684397563.625
37.56,1684397563.640625
38.84,1684397563.65625
39.38,1684397563.671875
39.28,1684397563.6875
38.39,1684397563.703125
36.72,1684397563.71875
34.42,1684397563.734375
31.89,1684397563.75
29.48,1684397563.765625
27.48,1684397563.78125
25.94,1684397563.796875
24.47,1684397563.8125
22.77,1684397563.828125
20.55,1684397563.84375
17.77,1684397563.859375
14.65,1684397563.875
11.42,1684397563.890625
8.18,1684397563.90625
4.90,1684397563.921875
1.46,1684397563.9375
-2.13,1684397563.953125
-5.63,1684397563.96875
-8.63,1684397563.984375
-10.65,1684397564.0
-11.56,1684397564.015625
-11.55,1684397564.03125
-11.02,1684397564.046875
-10.68,1684397564.0625
-11.01,1684397564.078125
-12.37,1684397564.09375
-14.71,1684397564.109375
-17.82,1684397564.125
-21.39,1684397564.140625
-25.15,1684397564.15625
-29.03,1684397564.171875
-32.99,1684397564.1875
-37.24,1684397564.203125
-41.93,1684397564.21875
-47.18,1684397564.234375
-52.88,1684397564.25
-58.61,1684397564.265625
-63.57,1684397564.28125
-66.52,1684397564.296875
-66.06,1684397564.3125
-60.82,1684397564.328125
-50.13,1684397564.34375
-34.28,1684397564.359375
-14.66,1684397564.375
6.44,1684397564.390625
26.55,1684397564.40625
43.66,1684397564.421875
56.64,1684397564.4375
65.41,1684397564.453125
70.58,1684397564.46875
72.85,1684397564.484375
72.82,1684397564.5
70.77,1684397564.515625
66.70,1684397564.53125
60.87,1684397564.546875
53.79,1684397564.5625
46.26,1684397564.578125
39.00,1684397564.59375
32.52,1684397564.609375
26.98,1684397564.625
22.20,1684397564.640625
17.96,1684397564.65625
14.06,1684397564.671875
10.57,1684397564.6875
7.63,1684397564.703125
5.36,1684397564.71875
3.77,1684397564.734375
2.67,1684397564.75
1.67,1684397564.765625
0.45,1684397564.78125
-1.18,1684397564.796875
-3.28,1684397564.8125
-5.56,1684397564.828125
-7.51,1684397564.84375
-8.67,1684397564.859375
-8.66,1684397564.875
-7.46,1684397564.890625
-5.47,1684397564.90625
-3.33,1684397564.921875
-1.70,1684397564.9375
-1.04,1684397564.953125
-1.47,1684397564.96875
-2.82,1684397564.984375
-4.82,1684397565.0
-7.19,1684397565.015625
-9.77,1684397565.03125
-12.58,1684397565.046875
-15.62,1684397565.0625
-19.07,1684397565.078125
-22.98,1684397565.09375
-27.50,1684397565.109375
-32.57,1684397565.125
-37.95,1684397565.140625
-42.98,1684397565.15625
-46.66,1684397565.171875
-48.00,1684397565.1875
-46.08,1684397565.203125
-40.69,1684397565.21875
-32.24,1684397565.234375
-21.81,1684397565.25
-10.71,1684397565.265625
-0.28,1684397565.28125
8.51,1684397565.296875
15.17,1684397565.3125
19.61,1684397565.328125
22.16,1684397565.34375
23.19,1684397565.359375
23.12,1684397565.375
22.34,1684397565.390625
21.15,1684397565.40625
19.82,1684397565.421875
18.55,1684397565.4375
17.51,1684397565.453125
16.69,1684397565.46875
16.17,1684397565.484375
15.89,1684397565.5
15.83,1684397565.515625
15.98,1684397565.53125
16.24,1684397565.546875
16.56,1684397565.5625
16.79,1684397565.578125
16.80,1684397565.59375
16.44,1684397565.609375
15.67,1684397565.625
14.46,1684397565.640625
12.80,1684397565.65625
10.82,1684397565.671875
8.57,1684397565.6875
6.15,1684397565.703125
3.67,1684397565.71875
1.20,1684397565.734375
-1.31,1684397565.75
-4.00,1684397565.765625
-6.96,1684397565.78125
-10.24,1684397565.796875
-13.71,1684397565.8125
-17.05,1684397565.828125
-19.97,1684397565.84375
-22.33,1684397565.859375
-24.28,1684397565.875
-26.24,1684397565.890625
-28.87,1684397565.90625
-32.72,1684397565.921875
-37.96,1684397565.9375
-44.29,1684397565.953125
-50.79,1684397565.96875
-56.10,1684397565.984375
-58.49,1684397566.0
-56.56,1684397566.015625
-49.53,1684397566.03125
-37.74,1684397566.046875
-22.68,1684397566.0625
-6.57,1684397566.078125
8.37,1684397566.09375
20.50,1684397566.109375
29.10,1684397566.125
34.55,1684397566.140625
37.60,1684397566.15625
39.08,1684397566.171875
39.44,1684397566.1875
38.84,1684397566.203125
37.32,1684397566.21875
35.02,1684397566.234375
32.35,1684397566.25
29.64,1684397566.265625
27.15,1684397566.28125
24.89,1684397566.296875
22.53,1684397566.3125
19.84,1684397566.328125
16.73,1684397566.34375
13.41,1684397566.359375
10.22,1684397566.375
7.56,1684397566.390625
5.50,1684397566.40625
3.77,1684397566.421875
1.76,1684397566.4375
-1.29,1684397566.453125
-5.78,1684397566.46875
-11.78,1684397566.484375
-18.80,1684397566.5
-26.09,1684397566.515625
-32.98,1684397566.53125
-39.21,1684397566.546875
-45.05,1684397566.5625
-51.12,1684397566.578125
-58.05,1684397566.59375
-66.08,1684397566.609375
-75.03,1684397566.625
-84.26,1684397566.640625
-93.25,1684397566.65625
-101.86,1684397566.671875
-110.57,1684397566.6875
-120.41,1684397566.703125
-132.62,1684397566.71875
-148.37,1684397566.734375
-168.42,1684397566.75
-192.83,1684397566.765625
-220.94,1684397566.78125
-251.03,1684397566.796875
-280.40,1684397566.8125
-305.78,1684397566.828125
-324.02,1684397566.84375
-333.02,1684397566.859375
-332.50,1684397566.875
-324.21,1684397566.890625
-311.07,1684397566.90625
-296.41,1684397566.921875
-282.77,1684397566.9375
-271.59,1684397566.953125
-263.17,1684397566.96875
-257.22,1684397566.984375
-253.19,1684397567.0
-250.35,1684397567.015625
-247.70,1684397567.03125
-243.78,1684397567.046875
-237.10,1684397567.0625
-226.48,1684397567.078125
-211.61,1684397567.09375
-193.32,1684397567.109375
-173.15,1684397567.125
-152.76,1684397567.140625
-133.02,1684397567.15625
-113.80,1684397567.171875
-93.90,1684397567.1875
-71.88,1684397567.203125
-46.73,1684397567.21875
-18.42,1684397567.234375
11.95,1684397567.25
42.74,1684397567.265625
72.41,1684397567.28125
100.26,1684397567.296875
126.51,1684397567.3125
152.31,1684397567.328125
179.27,1684397567.34375
209.14,1684397567.359375
243.38,1684397567.375
282.28,1684397567.390625
324.24,1684397567.40625
365.07,1684397567.421875
398.27,1684397567.4375
416.55,1684397567.453125
414.49,1684397567.46875
390.86,1684397567.484375
349.67,1684397567.5
299.16,1684397567.515625
248.75,1684397567.53125
205.95,1684397567.546875
174.14,1684397567.5625
152.39,1684397567.578125
137.00,1684397567.59375
123.78,1684397567.609375
109.61,1684397567.625
92.82,1684397567.640625
72.90,1684397567.65625
49.73,1684397567.671875
23.76,1684397567.6875
-3.60,1684397567.703125
-29.57,1684397567.71875
-50.23,1684397567.734375
-61.49,1684397567.75
-60.70,1684397567.765625
-47.73,1684397567.78125
-25.12,1684397567.796875
2.74,1684397567.8125
31.42,1684397567.828125
58.17,1684397567.84375
82.95,1684397567.859375
108.16,1684397567.875
137.11,1684397567.890625
171.87,1684397567.90625
211.64,1684397567.921875
252.32,1684397567.9375
287.73,1684397567.953125
311.55,1684397567.96875
319.74,1684397567.984375
311.51,1684397568.0
289.19,1684397568.015625
256.96,1684397568.03125
219.41,1684397568.046875
180.98,1684397568.0625
145.96,1684397568.078125
118.62,1684397568.09375
102.73,1684397568.109375
100.58,1684397568.125
111.84,1684397568.140625
133.23,1684397568.15625
159.36,1684397568.171875
184.35,1684397568.1875
203.42,1684397568.203125
213.69,1684397568.21875
213.95,1684397568.234375
204.32,1684397568.25
185.89,1684397568.265625
160.90,1684397568.28125
132.75,1684397568.296875
105.72,1684397568.3125
83.69,1684397568.328125
68.85,1684397568.34375
60.94,1684397568.359375
57.66,1684397568.375
55.84,1684397568.390625
52.92,1684397568.40625
47.85,1684397568.421875
41.12,1684397568.4375
34.50,1684397568.453125
29.94,1684397568.46875
29.03,1684397568.484375
32.38,1684397568.5
39.03,1684397568.515625
46.52,1684397568.53125
51.26,1684397568.546875
49.55,1684397568.5625
38.86,1684397568.578125
19.06,1684397568.59375
-7.45,1684397568.609375
-36.58,1684397568.625
-63.96,1684397568.640625
-86.56,1684397568.65625
-103.29,1684397568.671875
-114.89,1684397568.6875
-123.05,1684397568.703125
-129.39,1684397568.71875
-134.79,1684397568.734375
-139.20,1684397568.75
-141.76,1684397568.765625
-141.11,1684397568.78125
-136.13,1684397568.796875
-126.33,1684397568.8125
-112.20,1684397568.828125
-94.81,1684397568.84375
-75.30,1684397568.859375
-54.28,1684397568.875
-31.72,1684397568.890625
-7.61,1684397568.90625
17.31,1684397568.921875
40.75,1684397568.9375
59.18,1684397568.953125
68.81,1684397568.96875
67.11,1684397568.984375
53.79,1684397569.0
30.80,1684397569.015625
1.57,1684397569.03125
-30.66,1684397569.046875
-63.56,1684397569.0625
-96.03,1684397569.078125
-127.27,1684397569.09375
-155.60,1684397569.109375
-177.92,1684397569.125
-189.80,1684397569.140625
-187.14,1684397569.15625
-168.07,1684397569.171875
-134.54,1684397569.1875
-92.05,1684397569.203125
-48.22,1684397569.21875
-10.05,1684397569.234375
18.21,1684397569.25
35.38,1684397569.265625
42.49,1684397569.28125
41.08,1684397569.296875
32.22,1684397569.3125
16.41,1684397569.328125
-5.69,1684397569.34375
-32.54,1684397569.359375
-61.76,1684397569.375
-90.61,1684397569.390625
-116.65,1684397569.40625
-137.90,1684397569.421875
-152.84,1684397569.4375
-160.48,1684397569.453125
-160.46,1684397569.46875
-153.31,1684397569.484375
-140.34,1684397569.5
-123.27,1684397569.515625
-103.41,1684397569.53125
-81.45,1684397569.546875
-57.75,1684397569.5625
-32.92,1684397569.578125
-8.43,1684397569.59375
13.82,1684397569.609375
32.17,1684397569.625
46.07,1684397569.640625
56.35,1684397569.65625
64.65,1684397569.671875
72.35,1684397569.6875
79.86,1684397569.703125
86.66,1684397569.71875
91.73,1684397569.734375
94.55,1684397569.75
95.60,1684397569.765625
96.12,1684397569.78125
97.25,1684397569.796875
99.29,1684397569.8125
101.23,1684397569.828125
100.95,1684397569.84375
96.42,1684397569.859375
86.73,1684397569.875
72.56,1684397569.890625
55.88,1684397569.90625
38.90,1684397569.921875
23.10,1684397569.9375
8.62,1684397569.953125
-5.19,1684397569.96875
-19.07,1684397569.984375
-32.87,1684397570.0
-45.39,1684397570.015625
-54.79,1684397570.03125
-59.33,1684397570.046875
-58.28,1684397570.0625
-52.01,1684397570.078125
-41.92,1684397570.09375
-29.59,1684397570.109375
-16.24,1684397570.125
-2.74,1684397570.140625
10.29,1684397570.15625
22.08,1684397570.171875
31.67,1684397570.1875
38.16,1684397570.203125
41.36,1684397570.21875
42.07,1684397570.234375
41.90,1684397570.25
42.64,1684397570.265625
45.46,1684397570.28125
50.39,1684397570.296875
56.36,1684397570.3125
62.05,1684397570.328125
66.38,1684397570.34375
68.89,1684397570.359375
69.64,1684397570.375
68.60,1684397570.390625
65.29,1684397570.40625
58.89,1684397570.421875
48.88,1684397570.4375
35.49,1684397570.453125
20.34,1684397570.46875
6.20,1684397570.484375
-3.90,1684397570.5
-7.47,1684397570.515625
-3.57,1684397570.53125
7.04,1684397570.546875
22.16,1684397570.5625
39.09,1684397570.578125
55.15,1684397570.59375
67.66,1684397570.609375
73.97,1684397570.625
71.35,1684397570.640625
57.66,1684397570.65625
32.59,1684397570.671875
-1.10,1684397570.6875
-37.60,1684397570.703125
-69.30,1684397570.71875
-89.19,1684397570.734375
-93.41,1684397570.75
-82.58,1684397570.765625
-61.46,1684397570.78125
-36.85,1684397570.796875
-15.28,1684397570.8125
-0.73,1684397570.828125
6.01,1684397570.84375
6.85,1684397570.859375
5.17,1684397570.875
4.22,1684397570.890625
5.96,1684397570.90625
10.69,1684397570.921875
17.32,1684397570.9375
24.21,1684397570.953125
29.83,1684397570.96875
33.55,1684397570.984375
35.33,1684397571.0
35.53,1684397571.015625
34.41,1684397571.03125
32.14,1684397571.046875
28.74,1684397571.0625
24.25,1684397571.078125
18.97,1684397571.09375
13.15,1684397571.109375
6.81,1684397571.125
-0.47,1684397571.140625
-9.38,1684397571.15625
-20.55,1684397571.171875
-34.00,1684397571.1875
-48.74,1684397571.203125
-62.93,1684397571.21875
-74.20,1684397571.234375
-80.59,1684397571.25
-81.04,1684397571.265625
-75.76,1684397571.28125
-65.94,1684397571.296875
-53.23,1684397571.3125
-39.33,1684397571.328125
-25.58,1684397571.34375
-13.08,1684397571.359375
-2.95,1684397571.375
3.58,1684397571.390625
5.25,1684397571.40625
1.02,1684397571.421875
-9.56,1684397571.4375
-26.24,1684397571.453125
-48.04,1684397571.46875
-73.25,1684397571.484375
-99.45,1684397571.5
-123.67,1684397571.515625
-142.85,1684397571.53125
-154.38,1684397571.546875
-156.68,1684397571.5625
-149.66,1684397571.578125
-134.66,1684397571.59375
-113.76,1684397571.609375
-89.28,1684397571.625
-63.27,1684397571.640625
-37.60,1684397571.65625
-14.03,1684397571.671875
5.50,1684397571.6875
19.18,1684397571.703125
25.98,1684397571.71875
26.14,1684397571.734375
21.45,1684397571.75
14.65,1684397571.765625
8.56,1684397571.78125
4.98,1684397571.796875
4.15,1684397571.8125
4.59,1684397571.828125
3.68,1684397571.84375
-1.31,1684397571.859375
-12.02,1684397571.875
-27.82,1684397571.890625
-45.42,1684397571.90625
-59.22,1684397571.921875
-62.96,1684397571.9375
-51.93,1684397571.953125
-25.22,1684397571.96875
13.10,1684397571.984375
54.73,1684397572.0
89.12,1684397572.015625
106.69,1684397572.03125
101.30,1684397572.046875
71.68,1684397572.0625
21.36,1684397572.078125
-42.81,1684397572.09375
-112.23,1684397572.109375
-178.25,1684397572.125
-233.15,1684397572.140625
-271.16,1684397572.15625
-288.95,1684397572.171875
-286.48,1684397572.1875
-267.32,1684397572.203125
-238.09,1684397572.21875
-207.09,1684397572.234375
-181.64,1684397572.25
-165.86,1684397572.265625
-159.31,1684397572.28125
-157.44,1684397572.296875
-153.91,1684397572.3125
-143.62,1684397572.328125
-124.96,1684397572.34375
-100.21,1684397572.359375
-74.42,1684397572.375
-52.88,1684397572.390625
-39.18,1684397572.40625
-34.11,1684397572.421875
-36.08,1684397572.4375
-41.96,1684397572.453125
-48.14,1684397572.46875
-51.38,1684397572.484375
-49.16,1684397572.5
-40.35,1684397572.515625
-25.33,1684397572.53125
-6.14,1684397572.546875
14.09,1684397572.5625
32.12,1684397572.578125
45.55,1684397572.59375
53.55,1684397572.609375
56.84,1684397572.625
57.13,1684397572.640625
56.27,1684397572.65625
55.68,1684397572.671875
56.12,1684397572.6875
57.44,1684397572.703125
58.89,1684397572.71875
59.34,1684397572.734375
57.57,1684397572.75
52.52,1684397572.765625
43.86,1684397572.78125
31.91,1684397572.796875
17.58,1684397572.8125
2.11,1684397572.828125
-13.55,1684397572.84375
-28.92,1684397572.859375
-44.13,1684397572.875
-59.80,1684397572.890625
-76.81,1684397572.90625
-95.97,1684397572.921875
-117.75,1684397572.9375
-141.77,1684397572.953125
-166.40,1684397572.96875
-188.88,1684397572.984375
-205.80,1684397573.0
-214.18,1684397573.015625
-212.57,1684397573.03125
-201.59,1684397573.046875
-183.78,1684397573.0625
-162.65,1684397573.078125
-141.39,1684397573.09375
-122.00,1684397573.109375
-104.98,1684397573.125
-89.74,1684397573.140625
-75.35,1684397573.15625
-61.24,1684397573.171875
-47.33,1684397573.1875
-33.90,1684397573.203125
-21.34,1684397573.21875
-9.79,1684397573.234375
0.97,1684397573.25
11.23,1684397573.265625
21.33,1684397573.28125
31.49,1684397573.296875
41.56,1684397573.3125
51.06,1684397573.328125
59.42,1684397573.34375
66.17,1684397573.359375
71.08,1684397573.375
74.32,1684397573.390625
76.51,1684397573.40625
78.53,1684397573.421875
81.34,1684397573.4375
85.89,1684397573.453125
92.91,1684397573.46875
102.77,1684397573.484375
115.13,1684397573.5
129.09,1684397573.515625
142.71,1684397573.53125
153.70,1684397573.546875
159.97,1684397573.5625
160.12,1684397573.578125
154.02,1684397573.59375
142.58,1684397573.609375
127.29,1684397573.625
109.29,1684397573.640625
88.95,1684397573.65625
65.67,1684397573.671875
38.54,1684397573.6875
7.40,1684397573.703125
-26.42,1684397573.71875
-59.62,1684397573.734375
-87.69,1684397573.75
-106.19,1684397573.765625
-112.53,1684397573.78125
-106.71,1684397573.796875
-91.25,1684397573.8125
-70.17,1684397573.828125
-47.30,1684397573.84375
-25.05,1684397573.859375
-3.99,1684397573.875
16.47,1684397573.890625
37.49,1684397573.90625
59.94,1684397573.921875
84.27,1684397573.9375
110.50,1684397573.953125
138.08,1684397573.96875
165.86,1684397573.984375
191.63,1684397574.0
212.63,1684397574.015625
226.08,1684397574.03125
230.24,1684397574.046875
225.10,1684397574.0625
212.28,1684397574.078125
194.47,1684397574.09375
174.24,1684397574.109375
153.42,1684397574.125
132.79,1684397574.140625
112.54,1684397574.15625
92.67,1684397574.171875
73.23,1684397574.1875
54.37,1684397574.203125
35.87,1684397574.21875
17.10,1684397574.234375
-2.93,1684397574.25
-24.92,1684397574.265625
-48.82,1684397574.28125
-73.63,1684397574.296875
-97.46,1684397574.3125
-118.19,1684397574.328125
-134.01,1684397574.34375
-143.88,1684397574.359375
-147.57,1684397574.375
-145.62,1684397574.390625
-139.00,1684397574.40625
-128.93,1684397574.421875
-116.79,1684397574.4375
-103.73,1684397574.453125
-90.50,1684397574.46875
-76.78,1684397574.484375
-61.11,1684397574.5
-41.35,1684397574.515625
-15.53,1684397574.53125
17.04,1684397574.546875
55.17,1684397574.5625
95.96,1684397574.578125
135.85,1684397574.59375
171.94,1684397574.609375
202.79,1684397574.625
228.43,1684397574.640625
249.65,1684397574.65625
267.21,1684397574.671875
281.15,1684397574.6875
290.95,1684397574.703125
296.00,1684397574.71875
296.21,1684397574.734375
292.11,1684397574.75
284.61,1684397574.765625
274.49,1684397574.78125
262.08,1684397574.796875
247.21,1684397574.8125
229.57,1684397574.828125
209.21,1684397574.84375
186.93,1684397574.859375
164.22,1684397574.875
142.82,1684397574.890625
124.16,1684397574.90625
108.71,1684397574.921875
95.85,1684397574.9375
84.09,1684397574.953125
71.78,1684397574.96875
57.73,1684397574.984375
41.71,1684397575.0
24.44,1684397575.015625
7.20,1684397575.03125
-8.75,1684397575.046875
-22.61,1684397575.0625
-34.33,1684397575.078125
-44.62,1684397575.09375
-54.67,1684397575.109375
-65.86,1684397575.125
-79.45,1684397575.140625
-96.13,1684397575.15625
-115.48,1684397575.171875
-135.66,1684397575.1875
-153.32,1684397575.203125
-164.41,1684397575.21875
-165.20,1684397575.234375
-153.73,1684397575.25
-130.50,1684397575.265625
-98.43,1684397575.28125
-61.82,1684397575.296875
-24.93,1684397575.3125
9.13,1684397575.328125
38.80,1684397575.34375
63.71,1684397575.359375
84.01,1684397575.375
99.78,1684397575.390625
111.02,1684397575.40625
117.81,1684397575.421875
120.60,1684397575.4375
120.12,1684397575.453125
117.23,1684397575.46875
112.55,1684397575.484375
106.42,1684397575.5
99.03,1684397575.515625
90.61,1684397575.53125
81.73,1684397575.546875
73.15,1684397575.5625
65.65,1684397575.578125
59.68,1684397575.59375
55.08,1684397575.609375
51.17,1684397575.625
46.92,1684397575.640625
41.38,1684397575.65625
34.03,1684397575.671875
24.90,1684397575.6875
14.57,1684397575.703125
3.84,1684397575.71875
-6.64,1684397575.734375
-16.66,1684397575.75
-26.49,1684397575.765625
-36.89,1684397575.78125
-48.91,1684397575.796875
-63.52,1684397575.8125
-81.09,1684397575.828125
-100.89,1684397575.84375
-120.73,1684397575.859375
-137.15,1684397575.875
-146.31,1684397575.890625
-145.11,1684397575.90625
-132.38,1684397575.921875
-109.33,1684397575.9375
-79.06,1684397575.953125
-45.53,1684397575.96875
-12.32,1684397575.984375
18.13,1684397576.0
44.53,1684397576.015625
66.34,1684397576.03125
83.28,1684397576.046875
95.14,1684397576.0625
101.83,1684397576.078125
103.64,1684397576.09375
101.19,1684397576.109375
95.32,1684397576.125
86.73,1684397576.140625
75.85,1684397576.15625
62.90,1684397576.171875
48.14,1684397576.1875
32.07,1684397576.203125
15.55,1684397576.21875
-0.38,1684397576.234375
-14.88,1684397576.25
-27.71,1684397576.265625
-39.28,1684397576.28125
-50.65,1684397576.296875
-63.09,1684397576.3125
-77.70,1684397576.328125
-94.96,1684397576.34375
-114.65,1684397576.359375
-135.91,1684397576.375
-157.67,1684397576.390625
-178.97,1684397576.40625
-199.25,1684397576.421875
-218.46,1684397576.4375
-236.96,1684397576.453125
-255.32,1684397576.46875
-273.81,1684397576.484375
-291.90,1684397576.5
-307.64,1684397576.515625
-317.60,1684397576.53125
-317.49,1684397576.546875
-303.25,1684397576.5625
-272.44,1684397576.578125
-225.27,1684397576.59375
-164.65,1684397576.609375
-95.49,1684397576.625
-23.33,1684397576.640625
46.95,1684397576.65625
111.79,1684397576.671875
168.93,1684397576.6875
216.99,1684397576.703125
255.06,1684397576.71875
282.60,1684397576.734375
299.67,1684397576.75
307.16,1684397576.765625
306.69,1684397576.78125
300.28,1684397576.796875
289.72,1684397576.8125
276.24,1684397576.828125
260.39,1684397576.84375
242.27,1684397576.859375
222.04,1684397576.875
200.23,1684397576.890625
177.81,1684397576.90625
155.95,1684397576.921875
135.69,1684397576.9375
117.48,1684397576.953125
101.09,1684397576.96875
85.76,1684397576.984375
70.50,1684397577.0
54.53,1684397577.015625
37.57,1684397577.03125
19.91,1684397577.046875
2.22,1684397577.0625
-14.66,1684397577.078125
-30.13,1684397577.09375
-44.05,1684397577.109375
-56.78,1684397577.125
-69.21,1684397577.140625
-82.61,1684397577.15625
-98.15,1684397577.171875
-116.35,1684397577.1875
-136.53,1684397577.203125
-156.44,1684397577.21875
-172.59,1684397577.234375
-181.11,1684397577.25
-178.90,1684397577.265625
-164.57,1684397577.28125
-138.81,1684397577.296875
-104.13,1684397577.3125
-63.99,1684397577.328125
-21.89,1684397577.34375
19.16,1684397577.359375
56.87,1684397577.375
89.58,1684397577.390625
116.17,1684397577.40625
136.02,1684397577.421875
149.08,1684397577.4375
155.94,1684397577.453125
157.59,1684397577.46875
155.22,1684397577.484375
149.92,1684397577.5
142.54,1684397577.515625
133.54,1684397577.53125
123.14,1684397577.546875
111.40,1684397577.5625
98.38,1684397577.578125
84.36,1684397577.59375
69.87,1684397577.609375
55.70,1684397577.625
42.69,1684397577.640625
31.37,1684397577.65625
21.78,1684397577.671875
13.33,1684397577.6875
5.02,1684397577.703125
-4.24,1684397577.71875
-15.08,1684397577.734375
-27.44,1684397577.75
-40.59,1684397577.765625
-53.39,1684397577.78125
-64.76,1684397577.796875
-74.09,1684397577.8125
-81.52,1684397577.828125
-87.99,1684397577.84375
-95.00,1684397577.859375
-104.33,1684397577.875
-117.41,1684397577.890625
-134.72,1684397577.90625
-155.08,1684397577.921875
-175.49,1684397577.9375
-191.48,1684397577.953125
-198.17,1684397577.96875
-191.64,1684397577.984375
-170.22,1684397578.0
-135.01,1684397578.015625
-89.60,1684397578.03125
-39.05,1684397578.046875
11.47,1684397578.0625
57.76,1684397578.078125
97.13,1684397578.09375
128.35,1684397578.109375
151.25,1684397578.125
166.32,1684397578.140625
174.32,1684397578.15625
176.21,1684397578.171875
173.08,1684397578.1875
166.22,1684397578.203125
156.87,1684397578.21875
146.09,1684397578.234375
134.59,1684397578.25
122.65,1684397578.265625
110.19,1684397578.28125
97.06,1684397578.296875
83.29,1684397578.3125
69.25,1684397578.328125
55.68,1684397578.34375
43.43,1684397578.359375
33.21,1684397578.375
25.19,1684397578.390625
18.94,1684397578.40625
13.40,1684397578.421875
7.21,1684397578.4375
-0.88,1684397578.453125
-11.62,1684397578.46875
-24.97,1684397578.484375
-40.17,1684397578.5
-56.02,1684397578.515625
-71.30,1684397578.53125
-85.17,1684397578.546875
-97.48,1684397578.5625
-108.75,1684397578.578125
-120.10,1684397578.59375
-132.97,1684397578.609375
-148.66,1684397578.625
-167.78,1684397578.640625
-189.58,1684397578.65625
-211.54,1684397578.671875
-229.53,1684397578.6875
-238.61,1684397578.703125
-234.31,1684397578.71875
-214.06,1684397578.734375
-178.04,1684397578.75
-129.29,1684397578.765625
-72.98,1684397578.78125
-15.12,1684397578.796875
38.71,1684397578.8125
84.40,1684397578.828125
119.73,1684397578.84375
144.32,1684397578.859375
159.17,1684397578.875
166.00,1684397578.890625
166.66,1684397578.90625
162.72,1684397578.921875
155.30,1684397578.9375
145.18,1684397578.953125
133.01,1684397578.96875
119.52,1684397578.984375
105.40,1684397579.0
91.30,1684397579.015625
77.65,1684397579.03125
64.69,1684397579.046875
52.55,1684397579.0625
41.39,1684397579.078125
31.37,1684397579.09375
22.60,1684397579.109375
15.03,1684397579.125
8.39,1684397579.140625
2.24,1684397579.15625
-3.99,1684397579.171875
-10.82,1684397579.1875
-18.72,1684397579.203125
-27.85,1684397579.21875
-38.15,1684397579.234375
-49.18,1684397579.25
-60.20,1684397579.265625
-70.36,1684397579.28125
-78.91,1684397579.296875
-85.59,1684397579.3125
-90.66,1684397579.328125
-95.05,1684397579.34375
-100.10,1684397579.359375
-107.28,1684397579.375
-117.89,1684397579.390625
-132.55,1684397579.40625
-150.75,1684397579.421875
-170.38,1684397579.4375
-187.73,1684397579.453125
-197.93,1684397579.46875
-196.05,1684397579.484375
-178.67,1684397579.5
-145.03,1684397579.515625
-97.60,1684397579.53125
-41.51,1684397579.546875
16.86,1684397579.5625
71.46,1684397579.578125
117.99,1684397579.59375
154.37,1684397579.609375
180.43,1684397579.625
197.22,1684397579.640625
206.15,1684397579.65625
208.56,1684397579.671875
205.60,1684397579.6875
198.27,1684397579.703125
187.59,1684397579.71875
174.58,1684397579.734375
160.20,1684397579.75
145.21,1684397579.765625
130.22,1684397579.78125
115.72,1684397579.796875
102.21,1684397579.8125
90.19,1684397579.828125
80.11,1684397579.84375
72.16,1684397579.859375
66.11,1684397579.875
61.40,1684397579.890625
57.18,1684397579.90625
52.62,1684397579.921875
47.06,1684397579.9375
40.05,1684397579.953125
31.23,1684397579.96875
20.31,1684397579.984375
7.12,1684397580.0
-8.27,1684397580.015625
-25.37,1684397580.03125
-43.29,1684397580.046875
-60.85,1684397580.0625
-77.00,1684397580.078125
-91.03,1684397580.09375
-102.80,1684397580.109375
-112.79,1684397580.125
-121.98,1684397580.140625
-131.65,1684397580.15625
-143.13,1684397580.171875
-157.25,1684397580.1875
-173.73,1684397580.203125
-190.59,1684397580.21875
-204.06,1684397580.234375
-209.14,1684397580.25
-200.95,1684397580.265625
-176.42,1684397580.28125
-135.61,1684397580.296875
-82.02,1684397580.3125
-21.77,1684397580.328125
38.13,1684397580.34375
91.59,1684397580.359375
134.75,1684397580.375
166.41,1684397580.390625
187.47,1684397580.40625
200.07,1684397580.421875
206.62,1684397580.4375
209.27,1684397580.453125
209.68,1684397580.46875
209.06,1684397580.484375
208.23,1684397580.5
207.62,1684397580.515625
207.27,1684397580.53125
206.83,1684397580.546875
205.83,1684397580.5625
203.85,1684397580.578125
200.85,1684397580.59375
197.24,1684397580.609375
193.74,1684397580.625
191.06,1684397580.640625
189.57,1684397580.65625
189.15,1684397580.671875
189.14,1684397580.6875
188.54,1684397580.703125
186.28,1684397580.71875
181.45,1684397580.734375
173.45,1684397580.75
162.08,1684397580.765625
147.52,1684397580.78125
130.19,1684397580.796875
110.70,1684397580.8125
89.68,1684397580.828125
67.82,1684397580.84375
45.75,1684397580.859375
24.15,1684397580.875
3.66,1684397580.890625
-15.15,1684397580.90625
-32.00,1684397580.921875
-47.01,1684397580.9375
-60.76,1684397580.953125
-74.28,1684397580.96875
-88.96,1684397580.984375
-106.35,1684397581.0
-127.57,1684397581.015625
-152.56,1684397581.03125
-179.25,1684397581.046875
-203.47,1684397581.0625
-219.99,1684397581.078125
-224.25,1684397581.09375
-214.44,1684397581.109375
-192.44,1684397581.125
-163.31,1684397581.140625
-133.37,1684397581.15625
-107.76,1684397581.171875
-89.07,1684397581.1875
-77.20,1684397581.203125
-70.66,1684397581.21875
-68.03,1684397581.234375
-68.80,1684397581.25
-73.19,1684397581.265625
-81.40,1684397581.28125
-93.03,1684397581.296875
-107.02,1684397581.3125
-122.28,1684397581.328125
-138.31,1684397581.34375
-155.40,1684397581.359375
-174.29,1684397581.375
-195.51,1684397581.390625
-218.55,1684397581.40625
-241.60,1684397581.421875
-261.86,1684397581.4375
-276.48,1684397581.453125
-283.64,1684397581.46875
-283.38,1684397581.484375
-277.51,1684397581.5
-268.82,1684397581.515625
-259.93,1684397581.53125
-252.29,1684397581.546875
-245.89,1684397581.5625
-239.74,1684397581.578125
-232.75,1684397581.59375
-224.46,1684397581.609375
-215.30,1684397581.625
-206.34,1684397581.640625
-198.98,1684397581.65625
-194.63,1684397581.671875
-194.49,1684397581.6875
-199.13,1684397581.703125
-207.96,1684397581.71875
-218.66,1684397581.734375
-227.26,1684397581.75
-229.06,1684397581.765625
-220.15,1684397581.78125
-198.99,1684397581.796875
-166.98,1684397581.8125
-127.81,1684397581.828125
-85.99,1684397581.84375
-45.20,1684397581.859375
-7.26,1684397581.875
27.77,1684397581.890625
60.98,1684397581.90625
93.81,1684397581.921875
127.72,1684397581.9375
163.86,1684397581.953125
202.83,1684397581.96875
243.87,1684397581.984375
284.28,1684397582.0
319.59,1684397582.015625
344.63,1684397582.03125
355.47,1684397582.046875
350.93,1684397582.0625
333.27,1684397582.078125
307.21,1684397582.09375
278.12,1684397582.109375
250.10,1684397582.125
225.13,1684397582.140625
203.32,1684397582.15625
183.85,1684397582.171875
165.98,1684397582.1875
149.38,1684397582.203125
133.98,1684397582.21875
119.51,1684397582.234375
105.42,1684397582.25
90.98,1684397582.265625
75.70,1684397582.28125
59.60,1684397582.296875
43.18,1684397582.3125
27.21,1684397582.328125
12.35,1684397582.34375
-1.19,1684397582.359375
-13.75,1684397582.375
-25.92,1684397582.390625
-38.32,1684397582.40625
-51.32,1684397582.421875
-64.94,1684397582.4375
-79.16,1684397582.453125
-94.12,1684397582.46875
-110.12,1684397582.484375
-126.97,1684397582.5
-143.37,1684397582.515625
-156.33,1684397582.53125
-161.56,1684397582.546875
-154.70,1684397582.5625
-132.86,1684397582.578125
-95.66,1684397582.59375
-45.18,1684397582.609375
14.88,1684397582.625
80.40,1684397582.640625
147.67,1684397582.65625
213.47,1684397582.671875
274.73,1684397582.6875
328.53,1684397582.703125
372.44,1684397582.71875
405.34,1684397582.734375
427.81,1684397582.75
441.71,1684397582.765625
449.05,1684397582.78125
450.90,1684397582.796875
447.04,1684397582.8125
436.45,1684397582.828125
418.51,1684397582.84375
393.86,1684397582.859375
364.51,1684397582.875
333.14,1684397582.890625
302.21,1684397582.90625
273.08,1684397582.921875
246.07,1684397582.9375
220.87,1684397582.953125
197.09,1684397582.96875
174.69,1684397582.984375
153.94,1684397583.0
135.17,1684397583.015625
118.57,1684397583.03125
104.15,1684397583.046875
91.76,1684397583.0625
81.36,1684397583.078125
72.97,1684397583.09375
66.77,1684397583.109375
62.93,1684397583.125
61.45,1684397583.140625
62.04,1684397583.15625
64.18,1684397583.171875
67.25,1684397583.1875
70.64,1684397583.203125
73.97,1684397583.21875
77.07,1684397583.234375
80.01,1684397583.25
82.93,1684397583.265625
85.99,1684397583.28125
89.14,1684397583.296875
92.20,1684397583.3125
94.83,1684397583.328125
96.72,1684397583.34375
97.63,1684397583.359375
97.47,1684397583.375
96.27,1684397583.390625
94.12,1684397583.40625
91.13,1684397583.421875
87.25,1684397583.4375
82.35,1684397583.453125
76.22,1684397583.46875
68.65,1684397583.484375
59.46,1684397583.5
48.64,1684397583.515625
36.31,1684397583.53125
22.71,1684397583.546875
8.20,1684397583.5625
-6.82,1684397583.578125
-21.97,1684397583.59375
-36.92,1684397583.609375
-51.40,1684397583.625
-65.27,1684397583.640625
-78.36,1684397583.65625
-90.51,1684397583.671875
-101.48,1684397583.6875
-111.02,1684397583.703125
-118.87,1684397583.71875
-124.97,1684397583.734375
-129.44,1684397583.75
-132.67,1684397583.765625
-135.24,1684397583.78125
-137.73,1684397583.796875
-140.57,1684397583.8125
-143.91,1684397583.828125
-147.60,1684397583.84375
-151.40,1684397583.859375
-155.16,1684397583.875
-158.97,1684397583.890625
-163.32,1684397583.90625
-168.87,1684397583.921875
-176.26,1684397583.9375
-185.80,1684397583.953125
-197.39,1684397583.96875
-210.53,1684397583.984375
-224.65,1684397584.0
-239.38,1684397584.015625
-254.74,1684397584.03125
-271.13,1684397584.046875
-289.16,1684397584.0625
-309.39,1684397584.078125
-332.22,1684397584.09375
-357.91,1684397584.109375
-386.61,1684397584.125
-418.04,1684397584.140625
-451.26,1684397584.15625
-484.28,1684397584.171875
-514.24,1684397584.1875
-538.09,1684397584.203125
-553.64,1684397584.21875
-560.30,1684397584.234375
-559.02,1684397584.25
-551.39,1684397584.265625
-538.36,1684397584.28125
-519.60,1684397584.296875
-493.81,1684397584.3125
-459.96,1684397584.328125
-418.48,1684397584.34375
-371.71,1684397584.359375
-323.11,1684397584.375
-275.68,1684397584.390625
-230.79,1684397584.40625
-187.95,1684397584.421875
-145.90,1684397584.4375
-103.92,1684397584.453125
-62.78,1684397584.46875
-24.66,1684397584.484375
7.90,1684397584.5
33.17,1684397584.515625
50.86,1684397584.53125
61.96,1684397584.546875
68.01,1684397584.5625
70.21,1684397584.578125
69.22,1684397584.59375
65.15,1684397584.609375
57.92,1684397584.625
47.50,1684397584.640625
34.04,1684397584.65625
17.72,1684397584.671875
-1.05,1684397584.6875
-21.29,1684397584.703125
-41.27,1684397584.71875
-58.34,1684397584.734375
-69.32,1684397584.75
-71.36,1684397584.765625
-62.71,1684397584.78125
-43.20,1684397584.796875
-14.41,1684397584.8125
20.76,1684397584.828125
58.83,1684397584.84375
96.41,1684397584.859375
130.73,1684397584.875
159.88,1684397584.890625
182.74,1684397584.90625
198.90,1684397584.921875
208.31,1684397584.9375
211.22,1684397584.953125
208.16,1684397584.96875
200.06,1684397584.984375
188.23,1684397585.0
174.31,1684397585.015625
159.97,1684397585.03125
146.44,1684397585.046875
134.35,1684397585.0625
123.67,1684397585.078125
114.09,1684397585.09375
105.28,1684397585.109375
97.26,1684397585.125
90.26,1684397585.140625
84.57,1684397585.15625
80.15,1684397585.171875
76.40,1684397585.1875
72.24,1684397585.203125
66.41,1684397585.21875
57.87,1684397585.234375
46.30,1684397585.25
32.24,1684397585.265625
16.93,1684397585.28125
1.95,1684397585.296875
-11.39,1684397585.3125
-22.52,1684397585.328125
-31.80,1684397585.34375
-40.48,1684397585.359375
-50.22,1684397585.375
-62.73,1684397585.390625
-79.03,1684397585.40625
-98.99,1684397585.421875
-120.94,1684397585.4375
-141.67,1684397585.453125
-156.90,1684397585.46875
-162.32,1684397585.484375
-154.80,1684397585.5
-133.50,1684397585.515625
-100.20,1684397585.53125
-58.86,1684397585.546875
-14.48,1684397585.5625
28.31,1684397585.578125
66.24,1684397585.59375
97.69,1684397585.609375
122.44,1684397585.625
140.97,1684397585.640625
153.91,1684397585.65625
161.77,1684397585.671875
164.89,1684397585.6875
163.75,1684397585.703125
159.00,1684397585.71875
151.55,1684397585.734375
142.41,1684397585.75
132.50,1684397585.765625
122.48,1684397585.78125
112.67,1684397585.796875
103.12,1684397585.8125
93.74,1684397585.828125
84.52,1684397585.84375
75.68,1684397585.859375
67.65,1684397585.875
60.88,1684397585.890625
55.57,1684397585.90625
51.42,1684397585.921875
47.52,1684397585.9375
42.64,1684397585.953125
35.57,1684397585.96875
25.62,1684397585.984375
12.91,1684397586.0
-1.63,1684397586.015625
-16.63,1684397586.03125
-30.79,1684397586.046875
-43.36,1684397586.0625
-54.40,1684397586.078125
-64.60,1684397586.09375
-75.06,1684397586.109375
-86.90,1684397586.125
-100.94,1684397586.140625
-117.49,1684397586.15625
-136.01,1684397586.171875
-154.78,1684397586.1875
-170.84,1684397586.203125
-180.31,1684397586.21875
-179.22,1684397586.234375
-164.96,1684397586.25
-137.23,1684397586.265625
-98.59,1684397586.28125
-53.77,1684397586.296875
-8.26,1684397586.3125
33.20,1684397586.328125
67.70,1684397586.34375
94.33,1684397586.359375
113.68,1684397586.375
126.96,1684397586.390625
135.32,1684397586.40625
139.60,1684397586.421875
140.41,1684397586.4375
138.21,1684397586.453125
133.45,1684397586.46875
126.51,1684397586.484375
117.71,1684397586.5
107.35,1684397586.515625
95.77,1684397586.53125
83.55,1684397586.546875
71.41,1684397586.5625
60.14,1684397586.578125
50.35,1684397586.59375
42.24,1684397586.609375
35.58,1684397586.625
29.75,1684397586.640625
23.88,1684397586.65625
17.00,1684397586.671875
8.24,1684397586.6875
-3.01,1684397586.703125
-16.93,1684397586.71875
-33.24,1684397586.734375
-51.12,1684397586.75
-69.56,1684397586.765625
-87.62,1684397586.78125
-104.72,1684397586.796875
-120.89,1684397586.8125
-136.60,1684397586.828125
-152.60,1684397586.84375
-169.67,1684397586.859375
-188.54,1684397586.875
-209.84,1684397586.890625
-234.17,1684397586.90625
-262.01,1684397586.921875
-293.37,1684397586.9375
-327.27,1684397586.953125
-361.31,1684397586.96875
-391.73,1684397586.984375
-414.12,1684397587.0
-424.59,1684397587.015625
-421.08,1684397587.03125
-404.05,1684397587.046875
-376.42,1684397587.0625
-342.44,1684397587.078125
-306.33,1684397587.09375
-270.92,1684397587.109375
-237.34,1684397587.125
-205.14,1684397587.140625
-173.22,1684397587.15625
-140.66,1684397587.171875
-107.16,1684397587.1875
-73.04,1684397587.203125
-38.80,1684397587.21875
-4.85,1684397587.234375
28.82,1684397587.25
62.40,1684397587.265625
96.20,1684397587.28125
130.52,1684397587.296875
165.72,1684397587.3125
202.31,1684397587.328125
240.72,1684397587.34375
280.87,1684397587.359375
321.37,1684397587.375
359.31,1684397587.390625
390.67,1684397587.40625
411.37,1684397587.421875
418.76,1684397587.4375
412.51,1684397587.453125
394.70,1684397587.46875
368.95,1684397587.484375
339.14,1684397587.5
308.28,1684397587.515625
278.15,1684397587.53125
249.45,1684397587.546875
222.34,1684397587.5625
196.90,1684397587.578125
173.25,1684397587.59375
151.67,1684397587.609375
132.38,1684397587.625
115.43,1684397587.640625
100.40,1684397587.65625
86.20,1684397587.671875
71.04,1684397587.6875
52.78,1684397587.703125
29.64,1684397587.71875
0.96,1684397587.734375
-32.29,1684397587.75
-67.47,1684397587.765625
-100.81,1684397587.78125
-128.24,1684397587.796875
-146.16,1684397587.8125
-152.19,1684397587.828125
-145.63,1684397587.84375
-127.58,1684397587.859375
-101.00,1684397587.875
-70.17,1684397587.890625
-39.92,1684397587.90625
-14.47,1684397587.921875
3.61,1684397587.9375
14.21,1684397587.953125
19.78,1684397587.96875
24.54,1684397587.984375
33.09,1684397588.0
48.81,1684397588.015625
72.55,1684397588.03125
102.22,1684397588.046875
133.55,1684397588.0625
161.53,1684397588.078125
182.09,1684397588.09375
193.27,1684397588.109375
195.67,1684397588.125
191.76,1684397588.140625
184.90,1684397588.15625
178.10,1684397588.171875
173.28,1684397588.1875
170.91,1684397588.203125
170.10,1684397588.21875
169.10,1684397588.234375
165.68,1684397588.25
157.74,1684397588.265625
143.62,1684397588.28125
122.21,1684397588.296875
93.05,1684397588.3125
56.37,1684397588.328125
13.19,1684397588.34375
-34.68,1684397588.359375
-84.72,1684397588.375
-134.26,1684397588.390625
-181.19,1684397588.40625
-224.58,1684397588.421875
-264.98,1684397588.4375
-303.95,1684397588.453125
-343.13,1684397588.46875
-382.91,1684397588.484375
-421.82,1684397588.5
-456.29,1684397588.515625
-481.67,1684397588.53125
-493.81,1684397588.546875
-490.55,1684397588.5625
-472.56,1684397588.578125
-443.02,1684397588.59375
-406.48,1684397588.609375
-367.25,1684397588.625
-328.29,1684397588.640625
-290.89,1684397588.65625
-255.23,1684397588.671875
-221.23,1684397588.6875
-189.21,1684397588.703125
-159.79,1684397588.71875
-133.37,1684397588.734375
-109.50,1684397588.75
-86.79,1684397588.765625
-63.36,1684397588.78125
-37.67,1684397588.796875
-9.30,1684397588.8125
21.10,1684397588.828125
52.07,1684397588.84375
82.17,1684397588.859375
110.65,1684397588.875
137.73,1684397588.890625
164.44,1684397588.90625
192.41,1684397588.921875
223.55,1684397588.9375
259.60,1684397588.953125
301.40,1684397588.96875
348.08,1684397588.984375
396.44,1684397589.0
440.98,1684397589.015625
475.02,1684397589.03125
492.39,1684397589.046875
489.16,1684397589.0625
464.74,1684397589.078125
421.76,1684397589.09375
365.20,1684397589.109375
301.12,1684397589.125
235.52,1684397589.140625
173.68,1684397589.15625
119.65,1684397589.171875
75.99,1684397589.1875
43.51,1684397589.203125
21.34,1684397589.21875
7.28,1684397589.234375
-1.36,1684397589.25
-6.89,1684397589.265625
-10.43,1684397589.28125
-11.35,1684397589.296875
-7.43,1684397589.3125
4.76,1684397589.328125
28.45,1684397589.34375
65.27,1684397589.359375
113.85,1684397589.375
169.49,1684397589.390625
225.11,1684397589.40625
273.29,1684397589.421875
308.60,1684397589.4375
329.20,1684397589.453125
336.87,1684397589.46875
335.73,1684397589.484375
330.28,1684397589.5
323.86,1684397589.515625
318.02,1684397589.53125
312.86,1684397589.546875
307.89,1684397589.5625
302.66,1684397589.578125
297.10,1684397589.59375
291.26,1684397589.609375
285.05,1684397589.625
277.95,1684397589.640625
269.17,1684397589.65625
257.86,1684397589.671875
243.56,1684397589.6875
226.31,1684397589.703125
206.66,1684397589.71875
185.47,1684397589.734375
163.54,1684397589.75
141.42,1684397589.765625
119.32,1684397589.78125
97.21,1684397589.796875
74.90,1684397589.8125
52.31,1684397589.828125
29.46,1684397589.84375
6.41,1684397589.859375
-16.77,1684397589.875
-39.97,1684397589.890625
-62.96,1684397589.90625
-85.08,1684397589.921875
-105.36,1684397589.9375
-122.67,1684397589.953125
-136.27,1684397589.96875
-146.36,1684397589.984375
-154.38,1684397590.0
-162.55,1684397590.015625
-172.99,1684397590.03125
-186.48,1684397590.046875
-201.61,1684397590.0625
-214.90,1684397590.078125
-221.70,1684397590.09375
-217.78,1684397590.109375
-200.79,1684397590.125
-171.13,1684397590.140625
-131.78,1684397590.15625
-87.55,1684397590.171875
-43.76,1684397590.1875
-5.22,1684397590.203125
24.63,1684397590.21875
44.06,1684397590.234375
53.22,1684397590.25
53.82,1684397590.265625
48.61,1684397590.28125
40.61,1684397590.296875
32.16,1684397590.3125
24.35,1684397590.328125
16.91,1684397590.34375
8.81,1684397590.359375
-0.93,1684397590.375
-12.44,1684397590.390625
-24.82,1684397590.40625
-36.49,1684397590.421875
-46.01,1684397590.4375
-52.82,1684397590.453125
-57.55,1684397590.46875
-61.61,1684397590.484375
-66.57,1684397590.5
-73.61,1684397590.515625
-83.22,1684397590.53125
-95.48,1684397590.546875
-110.31,1684397590.5625
-127.71,1684397590.578125
-147.63,1684397590.59375
-169.66,1684397590.609375
-192.64,1684397590.625
-214.64,1684397590.640625
-233.45,1684397590.65625
-247.23,1684397590.671875
-255.13,1684397590.6875
-257.54,1684397590.703125
-255.95,1684397590.71875
-252.49,1684397590.734375
-249.44,1684397590.75
-248.83,1684397590.765625
-252.05,1684397590.78125
-259.54,1684397590.796875
-270.61,1684397590.8125
-283.42,1684397590.828125
-295.44,1684397590.84375
-304.31,1684397590.859375
-308.81,1684397590.875
-309.55,1684397590.890625
-308.94,1684397590.90625
-310.30,1684397590.921875
-316.54,1684397590.9375
-328.81,1684397590.953125
-345.89,1684397590.96875
-364.42,1684397590.984375
-379.94,1684397591.0
-388.35,1684397591.015625
-387.12,1684397591.03125
-375.92,1684397591.046875
-356.41,1684397591.0625
-331.33,1684397591.078125
-303.39,1684397591.09375
-274.33,1684397591.109375
-244.65,1684397591.125
-213.97,1684397591.140625
-181.83,1684397591.15625
-148.37,1684397591.171875
-114.49,1684397591.1875
-81.50,1684397591.203125
-50.42,1684397591.21875
-21.37,1684397591.234375
6.55,1684397591.25
34.91,1684397591.265625
65.42,1684397591.28125
99.48,1684397591.296875
138.00,1684397591.3125
181.14,1684397591.328125
227.71,1684397591.34375
274.57,1684397591.359375
316.46,1684397591.375
346.77,1684397591.390625
359.40,1684397591.40625
350.81,1684397591.421875
321.45,1684397591.4375
275.49,1684397591.453125
219.11,1684397591.46875
158.11,1684397591.484375
96.08,1684397591.5
34.15,1684397591.515625
-27.94,1684397591.53125
-89.93,1684397591.546875
-149.71,1684397591.5625
-203.10,1684397591.578125
-245.03,1684397591.59375
-271.29,1684397591.609375
-280.05,1684397591.625
-272.48,1684397591.640625
-252.18,1684397591.65625
-223.86,1684397591.671875
-191.75,1684397591.6875
-158.59,1684397591.703125
-125.43,1684397591.71875
-92.29,1684397591.734375
-58.98,1684397591.75
-25.50,1684397591.765625
8.04,1684397591.78125
41.70,1684397591.796875
75.72,1684397591.8125
110.11,1684397591.828125
143.92,1684397591.84375
174.87,1684397591.859375
199.65,1684397591.875
214.98,1684397591.890625
218.89,1684397591.90625
211.48,1684397591.921875
194.94,1684397591.9375
172.81,1684397591.953125
148.87,1684397591.96875
126.16,1684397591.984375
106.48,1684397592.0
90.28,1684397592.015625
76.84,1684397592.03125
64.61,1684397592.046875
51.80,1684397592.0625
37.01,1684397592.078125
19.76,1684397592.09375
0.66,1684397592.109375
-18.89,1684397592.125
-37.35,1684397592.140625
-53.75,1684397592.15625
-68.10,1684397592.171875
-81.42,1684397592.1875
-95.40,1684397592.203125
-111.91,1684397592.21875
-132.46,1684397592.234375
-157.77,1684397592.25
-187.25,1684397592.265625
-218.73,1684397592.28125
-248.46,1684397592.296875
-271.93,1684397592.3125
-284.98,1684397592.328125
-285.25,1684397592.34375
-272.88,1684397592.359375
-250.42,1684397592.375
-221.71,1684397592.390625
-190.43,1684397592.40625
-159.01,1684397592.421875
-128.34,1684397592.4375
-98.35,1684397592.453125
-68.75,1684397592.46875
-39.64,1684397592.484375
-11.54,1684397592.5
15.00,1684397592.515625
39.95,1684397592.53125
63.87,1684397592.546875
87.85,1684397592.5625
113.10,1684397592.578125
140.67,1684397592.59375
171.02,1684397592.609375
203.66,1684397592.625
236.85,1684397592.640625
267.72,1684397592.65625
292.89,1684397592.671875
309.38,1684397592.6875
315.64,1684397592.703125
312.16,1684397592.71875
301.07,1684397592.734375
285.28,1684397592.75
267.28,1684397592.765625
248.35,1684397592.78125
228.47,1684397592.796875
207.00,1684397592.8125
183.41,1684397592.828125
157.81,1684397592.84375
131.06,1684397592.859375
104.27,1684397592.875
78.34,1684397592.890625
53.68,1684397592.90625
30.12,1684397592.921875
7.07,1684397592.9375
-16.23,1684397592.953125
-40.64,1684397592.96875
-66.99,1684397592.984375
-96.00,1684397593.0
-127.77,1684397593.015625
-161.16,1684397593.03125
-193.38,1684397593.046875
-220.15,1684397593.0625
-236.74,1684397593.078125
-239.53,1684397593.09375
-227.32,1684397593.109375
-201.91,1684397593.125
-167.33,1684397593.140625
-128.31,1684397593.15625
-88.63,1684397593.171875
-50.16,1684397593.1875
-12.90,1684397593.203125
24.37,1684397593.21875
63.02,1684397593.234375
103.62,1684397593.25
145.35,1684397593.265625
185.94,1684397593.28125
222.02,1684397593.296875
250.08,1684397593.3125
267.49,1684397593.328125
273.52,1684397593.34375
269.68,1684397593.359375
259.16,1684397593.375
245.67,1684397593.390625
232.26,1684397593.40625
220.66,1684397593.421875
211.31,1684397593.4375
203.90,1684397593.453125
197.87,1684397593.46875
192.66,1684397593.484375
187.54,1684397593.5
181.36,1684397593.515625
172.69,1684397593.53125
160.19,1684397593.546875
143.07,1684397593.5625
121.49,1684397593.578125
96.46,1684397593.59375
69.64,1684397593.609375
42.70,1684397593.625
16.94,1684397593.640625
-7.02,1684397593.65625
-29.15,1684397593.671875
-49.84,1684397593.6875
-69.54,1684397593.703125
-88.59,1684397593.71875
-107.26,1684397593.734375
-125.92,1684397593.75
-145.17,1684397593.765625
-165.62,1684397593.78125
-187.13,1684397593.796875
-208.15,1684397593.8125
-225.46,1684397593.828125
-234.73,1684397593.84375
-231.88,1684397593.859375
-214.61,1684397593.875
-183.15,1684397593.890625
-140.02,1684397593.90625
-88.91,1684397593.921875
-33.42,1684397593.9375
23.50,1684397593.953125
79.26,1684397593.96875
131.21,1684397593.984375
176.29,1684397594.0
211.71,1684397594.015625
235.68,1684397594.03125
248.35,1684397594.046875
251.59,1684397594.0625
248.22,1684397594.078125
240.78,1684397594.09375
230.82,1684397594.109375
218.92,1684397594.125
205.26,1684397594.140625
190.29,1684397594.15625
175.02,1684397594.171875
160.77,1684397594.1875
148.56,1684397594.203125
138.64,1684397594.21875
130.37,1684397594.234375
122.53,1684397594.25
113.88,1684397594.265625
103.55,1684397594.28125
91.36,1684397594.296875
77.64,1684397594.3125
62.91,1684397594.328125
47.45,1684397594.34375
31.16,1684397594.359375
13.57,1684397594.375
-5.72,1684397594.390625
-26.77,1684397594.40625
-49.02,1684397594.421875
-71.39,1684397594.4375
-92.59,1684397594.453125
-111.53,1684397594.46875
-127.69,1684397594.484375
-141.30,1684397594.5
-153.42,1684397594.515625
-165.73,1684397594.53125
-180.17,1684397594.546875
-198.21,1684397594.5625
-219.87,1684397594.578125
-243.06,1684397594.59375
-263.51,1684397594.609375
-275.62,1684397594.625
-274.17,1684397594.640625
-256.03,1684397594.65625
-221.20,1684397594.671875
-172.63,1684397594.6875
-115.20,1684397594.703125
-54.20,1684397594.71875
5.74,1684397594.734375
61.13,1684397594.75
109.59,1684397594.765625
149.58,1684397594.78125
180.23,1684397594.796875
201.36,1684397594.8125
213.46,1684397594.828125
217.48,1684397594.84375
214.61,1684397594.859375
206.02,1684397594.875
192.86,1684397594.890625
176.38,1684397594.90625
157.96,1684397594.921875
139.06,1684397594.9375
120.92,1684397594.953125
104.39,1684397594.96875
89.87,1684397594.984375
77.49,1684397595.0
67.25,1684397595.015625
59.02,1684397595.03125
52.51,1684397595.046875
47.06,1684397595.0625
41.65,1684397595.078125
34.95,1684397595.09375
25.76,1684397595.109375
13.28,1684397595.125
-2.53,1684397595.140625
-20.93,1684397595.15625
-40.57,1684397595.171875
-59.96,1684397595.1875
-77.92,1684397595.203125
-93.98,1684397595.21875
-108.45,1684397595.234375
-122.29,1684397595.25
-136.71,1684397595.265625
-152.83,1684397595.28125
-171.56,1684397595.296875
-193.26,1684397595.3125
-217.42,1684397595.328125
-242.17,1684397595.34375
-264.10,1684397595.359375
-278.68,1684397595.375
-281.37,1684397595.390625
-269.03,1684397595.40625
-241.06,1684397595.421875
-199.53,1684397595.4375
-148.12,1684397595.453125
-90.86,1684397595.46875
-31.01,1684397595.484375
28.89,1684397595.5
86.53,1684397595.515625
139.10,1684397595.53125
183.45,1684397595.546875
216.98,1684397595.5625
238.57,1684397595.578125
249.09,1684397595.59375
250.86,1684397595.609375
246.52,1684397595.625
237.91,1684397595.640625
225.81,1684397595.65625
210.36,1684397595.671875
191.93,1684397595.6875
171.75,1684397595.703125
151.84,1684397595.71875
134.41,1684397595.734375
120.95,1684397595.75
111.75,1684397595.765625
105.89,1684397595.78125
101.64,1684397595.796875
97.15,1684397595.8125
90.99,1684397595.828125
82.57,1684397595.84375
72.05,1684397595.859375
60.18,1684397595.875
47.79,1684397595.890625
35.39,1684397595.90625
22.98,1684397595.921875
10.04,1684397595.9375
-4.21,1684397595.953125
-20.37,1684397595.96875
-38.47,1684397595.984375
-57.96,1684397596.0
-77.80,1684397596.015625
-96.86,1684397596.03125
-114.43,1684397596.046875
-130.40,1684397596.0625
-145.36,1684397596.078125
-160.49,1684397596.09375
-177.31,1684397596.109375
-197.01,1684397596.125
-219.86,1684397596.140625
-244.35,1684397596.15625
-266.93,1684397596.171875
-282.49,1684397596.1875
-285.64,1684397596.203125
-272.36,1684397596.21875
-241.39,1684397596.234375
-194.62,1684397596.25
-136.50,1684397596.265625
-72.82,1684397596.28125
-9.38,1684397596.296875
48.93,1684397596.3125
98.65,1684397596.328125
137.79,1684397596.34375
165.87,1684397596.359375
183.70,1684397596.375
193.14,1684397596.390625
196.55,1684397596.40625
196.04,1684397596.421875
193.09,1684397596.4375
188.28,1684397596.453125
181.70,1684397596.46875
173.25,1684397596.484375
163.10,1684397596.5
151.75,1684397596.515625
139.95,1684397596.53125
128.53,1684397596.546875
118.15,1684397596.5625
109.23,1684397596.578125
101.75,1684397596.59375
95.21,1684397596.609375
88.78,1684397596.625
81.44,1684397596.640625
72.42,1684397596.65625
61.37,1684397596.671875
48.64,1684397596.6875
35.00,1684397596.703125
21.55,1684397596.71875
9.05,1684397596.734375
-2.24,1684397596.75
-12.69,1684397596.765625
-23.15,1684397596.78125
-34.50,1684397596.796875
-47.24,1684397596.8125
-61.33,1684397596.828125
-76.21,1684397596.84375
-91.03,1684397596.859375
-105.05,1684397596.875
-117.90,1684397596.890625
-129.69,1684397596.90625
-141.19,1684397596.921875
-153.69,1684397596.9375
-168.68,1684397596.953125
-187.18,1684397596.96875
-208.80,1684397596.984375
-231.04,1684397597.0
-249.27,1684397597.015625
-257.77,1684397597.03125
-251.33,1684397597.046875
-227.06,1684397597.0625
-185.25,1684397597.078125
-129.36,1684397597.09375
-64.91,1684397597.109375
1.84,1684397597.125
65.12,1684397597.140625
120.31,1684397597.15625
164.39,1684397597.171875
196.06,1684397597.1875
215.73,1684397597.203125
225.28,1684397597.21875
227.40,1684397597.234375
224.78,1684397597.25
219.35,1684397597.265625
211.94,1684397597.28125
202.51,1684397597.296875
190.76,1684397597.3125
176.72,1684397597.328125
160.98,1684397597.34375
144.60,1684397597.359375
128.86,1684397597.375
114.90,1684397597.390625
103.44,1684397597.40625
94.64,1684397597.421875
88.01,1684397597.4375
82.54,1684397597.453125
76.92,1684397597.46875
69.90,1684397597.484375
60.69,1684397597.5
49.10,1684397597.515625
35.45,1684397597.53125
20.40,1684397597.546875
4.52,1684397597.5625
-11.86,1684397597.578125
-28.74,1684397597.59375
-46.33,1684397597.609375
-64.75,1684397597.625
-83.83,1684397597.640625
-103.15,1684397597.65625
-122.10,1684397597.671875
-140.03,1684397597.6875
-156.56,1684397597.703125
-171.64,1684397597.71875
-185.71,1684397597.734375
-199.81,1684397597.75
-215.42,1684397597.765625
-233.97,1684397597.78125
-256.01,1684397597.796875
-280.19,1684397597.8125
-302.88,1684397597.828125
-318.66,1684397597.84375
-321.88,1684397597.859375
-308.51,1684397597.875
-277.52,1684397597.890625
-231.08,1684397597.90625
-173.55,1684397597.921875
-110.08,1684397597.9375
-45.46,1684397597.953125
16.25,1684397597.96875
71.69,1684397597.984375
118.00,1684397598.0
153.13,1684397598.015625
176.26,1684397598.03125
188.19,1684397598.046875
191.09,1684397598.0625
187.68,1684397598.078125
180.32,1684397598.09375
170.45,1684397598.109375
158.70,1684397598.125
145.45,1684397598.140625
131.38,1684397598.15625
117.61,1684397598.171875
105.48,1684397598.1875
96.05,1684397598.203125
89.60,1684397598.21875
85.58,1684397598.234375
82.75,1684397598.25
79.59,1684397598.265625
74.79,1684397598.28125
67.64,1684397598.296875
58.21,1684397598.3125
47.04,1684397598.328125
34.91,1684397598.34375
22.23,1684397598.359375
9.03,1684397598.375
-5.05,1684397598.390625
-20.41,1684397598.40625
-37.11,1684397598.421875
-54.77,1684397598.4375
-72.67,1684397598.453125
-90.06,1684397598.46875
-106.52,1684397598.484375
-122.02,1684397598.5
-136.85,1684397598.515625
-151.39,1684397598.53125
-165.99,1684397598.546875
-181.11,1684397598.5625
-197.37,1684397598.578125
-215.31,1684397598.59375
-234.78,1684397598.609375
-254.17,1684397598.625
-270.14,1684397598.640625
-278.16,1684397598.65625
-273.87,1684397598.671875
-254.78,1684397598.6875
-221.14,1684397598.703125
-175.76,1684397598.71875
-122.66,1684397598.734375
-65.65,1684397598.75
-7.54,1684397598.765625
49.61,1684397598.78125
103.66,1684397598.796875
151.90,1684397598.8125
191.29,1684397598.828125
219.54,1684397598.84375
236.10,1684397598.859375
242.43,1684397598.875
241.31,1684397598.890625
235.55,1684397598.90625
226.98,1684397598.921875
216.17,1684397598.9375
203.06,1684397598.953125
187.78,1684397598.96875
171.18,1684397598.984375
154.83,1684397599.0
140.38,1684397599.015625
128.94,1684397599.03125
120.67,1684397599.046875
114.78,1684397599.0625
109.94,1684397599.078125
104.73,1684397599.09375
98.04,1684397599.109375
89.33,1684397599.125
78.61,1684397599.140625
66.25,1684397599.15625
52.79,1684397599.171875
38.68,1684397599.1875
24.07,1684397599.203125
8.85,1684397599.21875
-7.25,1684397599.234375
-24.49,1684397599.25
-42.77,1684397599.265625
-61.62,1684397599.28125
-80.33,1684397599.296875
-98.12,1684397599.3125
-114.44,1684397599.328125
-129.16,1684397599.34375
-142.53,1684397599.359375
-155.10,1684397599.375
-167.66,1684397599.390625
-181.15,1684397599.40625
-196.61,1684397599.421875
-214.72,1684397599.4375
-235.01,1684397599.453125
-255.21,1684397599.46875
-271.25,1684397599.484375
-278.03,1684397599.5
-271.14,1684397599.515625
-248.37,1684397599.53125
-210.50,1684397599.546875
-160.76,1684397599.5625
-103.49,1684397599.578125
-42.78,1684397599.59375
18.06,1684397599.609375
76.32,1684397599.625
129.33,1684397599.640625
174.33,1684397599.65625
208.97,1684397599.671875
232.25,1684397599.6875
244.96,1684397599.703125
249.41,1684397599.71875
248.40,1684397599.734375
244.13,1684397599.75
237.67,1684397599.765625
229.17,1684397599.78125
218.62,1684397599.796875
206.37,1684397599.8125
193.45,1684397599.828125
181.16,1684397599.84375
170.48,1684397599.859375
161.72,1684397599.875
154.40,1684397599.890625
147.48,1684397599.90625
139.80,1684397599.921875
130.36,1684397599.9375
118.67,1684397599.953125
104.76,1684397599.96875
89.09,1684397599.984375
72.31,1684397600.0
55.05,1684397600.015625
37.74,1684397600.03125
20.46,1684397600.046875
2.99,1684397600.0625
-15.08,1684397600.078125
-34.06,1684397600.09375
-53.99,1684397600.109375
-74.52,1684397600.125
-94.97,1684397600.140625
-114.54,1684397600.15625
-132.65,1684397600.171875
-149.21,1684397600.1875
-164.69,1684397600.203125
-180.18,1684397600.21875
-197.18,1684397600.234375
-217.10,1684397600.25
-240.57,1684397600.265625
-266.61,1684397600.28125
-292.09,1684397600.296875
-312.08,1684397600.3125
-320.93,1684397600.328125
-313.99,1684397600.34375
-289.16,1684397600.359375
-247.52,1684397600.375
-192.88,1684397600.390625
-130.52,1684397600.40625
-65.90,1684397600.421875
-3.73,1684397600.4375
52.31,1684397600.453125
99.54,1684397600.46875
136.19,1684397600.484375
161.66,1684397600.5
176.45,1684397600.515625
182.18,1684397600.53125
180.96,1684397600.546875
174.79,1684397600.5625
165.11,1684397600.578125
152.88,1684397600.59375
138.89,1684397600.609375
124.05,1684397600.625
109.48,1684397600.640625
96.21,1684397600.65625
84.91,1684397600.671875
75.67,1684397600.6875
68.10,1684397600.703125
61.63,1684397600.71875
55.68,1684397600.734375
49.89,1684397600.75
43.99,1684397600.765625
37.64,1684397600.78125
30.37,1684397600.796875
21.53,1684397600.8125
10.52,1684397600.828125
-2.96,1684397600.84375
-18.67,1684397600.859375
-35.77,1684397600.875
-53.03,1684397600.890625
-69.33,1684397600.90625
-84.02,1684397600.921875
-97.16,1684397600.9375
-109.47,1684397600.953125
-121.94,1684397600.96875
-135.62,1684397600.984375
-151.40,1684397601.0
-169.96,1684397601.015625
-191.51,1684397601.03125
-215.22,1684397601.046875
-238.72,1684397601.0625
-258.04,1684397601.078125
-268.31,1684397601.09375
-265.20,1684397601.109375
-246.47,1684397601.125
-212.74,1684397601.140625
-167.11,1684397601.15625
-113.75,1684397601.171875
-56.54,1684397601.1875
1.66,1684397601.203125
58.65,1684397601.21875
112.16,1684397601.234375
159.33,1684397601.25
197.23,1684397601.265625
223.79,1684397601.28125
238.78,1684397601.296875
243.83,1684397601.3125
241.64,1684397601.328125
234.73,1684397601.34375
224.65,1684397601.359375
211.95,1684397601.375
196.87,1684397601.390625
179.99,1684397601.40625
162.58,1684397601.421875
146.27,1684397601.4375
132.34,1684397601.453125
121.26,1684397601.46875
112.52,1684397601.484375
105.05,1684397601.5
97.65,1684397601.515625
89.49,1684397601.53125
80.25,1684397601.546875
69.98,1684397601.5625
58.87,1684397601.578125
46.96,1684397601.59375
34.03,1684397601.609375
19.76,1684397601.625
3.89,1684397601.640625
-13.56,1684397601.65625
-32.16,1684397601.671875
-51.21,1684397601.6875
-69.98,1684397601.703125
-87.94,1684397601.71875
-104.87,1684397601.734375
-120.85,1684397601.75
-136.28,1684397601.765625
-151.83,1684397601.78125
-168.44,1684397601.796875
-187.20,1684397601.8125
-208.76,1684397601.828125
-232.49,1684397601.84375
-255.88,1684397601.859375
-274.55,1684397601.875
-283.23,1684397601.890625
-277.45,1684397601.90625
-255.16,1684397601.921875
-217.34,1684397601.9375
-167.47,1684397601.953125
-109.99,1684397601.96875
-49.12,1684397601.984375
11.82,1684397602.0
70.01,1684397602.015625
122.71,1684397602.03125
167.10,1684397602.046875
200.83,1684397602.0625
222.98,1684397602.078125
234.50,1684397602.09375
237.82,1684397602.109375
235.76,1684397602.125
230.40,1684397602.140625
222.47,1684397602.15625
211.86,1684397602.171875
198.38,1684397602.1875
182.59,1684397602.203125
165.94,1684397602.21875
150.34,1684397602.234375
137.41,1684397602.25
128.00,1684397602.265625
121.90,1684397602.28125
118.10,1684397602.296875
115.22,1684397602.3125
111.85,1684397602.328125
106.98,1684397602.34375
100.07,1684397602.359375
91.03,1684397602.375
80.14,1684397602.390625
67.82,1684397602.40625
54.45,1684397602.421875
40.25,1684397602.4375
25.16,1684397602.453125
8.98,1684397602.46875
-8.50,1684397602.484375
-27.20,1684397602.5
-46.69,1684397602.515625
-66.17,1684397602.53125
-84.69,1684397602.546875
-101.41,1684397602.5625
-115.99,1684397602.578125
-128.73,1684397602.59375
-140.72,1684397602.609375
-153.63,1684397602.625
-169.28,1684397602.640625
-188.90,1684397602.65625
-212.21,1684397602.671875
-236.72,1684397602.6875
-257.71,1684397602.703125
-269.22,1684397602.71875
-265.63,1684397602.734375
-243.54,1684397602.75
-202.92,1684397602.765625
-147.23,1684397602.78125
-82.50,1684397602.796875
-15.73,1684397602.8125
46.71,1684397602.828125
100.17,1684397602.84375
142.21,1684397602.859375
172.41,1684397602.875
191.94,1684397602.890625
202.77,1684397602.90625
207.06,1684397602.921875
206.59,1684397602.9375
202.46,1684397602.953125
195.17,1684397602.96875
184.93,1684397602.984375
172.08,1684397603.0
157.26,1684397603.015625
141.42,1684397603.03125
125.55,1684397603.046875
110.50,1684397603.0625
96.76,1684397603.078125
84.48,1684397603.09375
73.53,1684397603.109375
63.56,1684397603.125
54.06,1684397603.140625
44.51,1684397603.15625
34.44,1684397603.171875
23.47,1684397603.1875
11.33,1684397603.203125
-2.15,1684397603.21875
-17.03,1684397603.234375
-33.21,1684397603.25
-50.44,1684397603.265625
-68.23,1684397603.28125
-85.94,1684397603.296875
-103.01,1684397603.3125
-118.98,1684397603.328125
-133.67,1684397603.34375
-147.25,1684397603.359375
-160.18,1684397603.375
-173.19,1684397603.390625
-187.35,1684397603.40625
-203.75,1684397603.421875
-223.04,1684397603.4375
-244.63,1684397603.453125
-266.01,1684397603.46875
-282.77,1684397603.484375
-289.57,1684397603.5
-281.80,1684397603.515625
-257.09,1684397603.53125
-216.13,1684397603.546875
-162.37,1684397603.5625
-100.88,1684397603.578125
-37.10,1684397603.59375
24.18,1684397603.609375
79.21,1684397603.625
125.35,1684397603.640625
161.04,1684397603.65625
185.94,1684397603.671875
200.89,1684397603.6875
207.66,1684397603.703125
208.35,1684397603.71875
204.71,1684397603.734375
197.83,1684397603.75
188.19,1684397603.765625
176.10,1684397603.78125
162.14,1684397603.796875
147.31,1684397603.8125
132.86,1684397603.828125
119.93,1684397603.84375
109.26,1684397603.859375
101.00,1684397603.875
94.73,1684397603.890625
89.53,1684397603.90625
84.33,1684397603.921875
78.12,1684397603.9375
70.21,1684397603.953125
60.35,1684397603.96875
48.67,1684397603.984375
35.52,1684397604.0
21.18,1684397604.015625
5.80,1684397604.03125
-10.61,1684397604.046875
-27.98,1684397604.0625
-46.06,1684397604.078125
-64.33,1684397604.09375
-82.18,1684397604.109375
-99.14,1684397604.125
-114.93,1684397604.140625
-129.61,1684397604.15625
-143.43,1684397604.171875
-156.94,1684397604.1875
-171.05,1684397604.203125
-186.95,1684397604.21875
-205.56,1684397604.234375
-226.74,1684397604.25
-248.45,1684397604.265625
-266.52,1684397604.28125
-275.58,1684397604.296875
-270.65,1684397604.3125
-248.97,1684397604.328125
-210.86,1684397604.34375
-159.54,1684397604.359375
-99.93,1684397604.375
-37.29,1684397604.390625
23.69,1684397604.40625
79.26,1684397604.421875
126.55,1684397604.4375
163.61,1684397604.453125
189.69,1684397604.46875
205.50,1684397604.484375
213.05,1684397604.5
214.97,1684397604.515625
213.56,1684397604.53125
210.07,1684397604.546875
204.64,1684397604.5625
196.73,1684397604.578125
185.99,1684397604.59375
172.66,1684397604.609375
157.80,1684397604.625
142.95,1684397604.640625
129.57,1684397604.65625
118.72,1684397604.671875
110.76,1684397604.6875
105.36,1684397604.703125
101.58,1684397604.71875
98.21,1684397604.734375
93.95,1684397604.75
87.82,1684397604.765625
79.30,1684397604.78125
68.45,1684397604.796875
55.79,1684397604.8125
42.13,1684397604.828125
28.14,1684397604.84375
14.21,1684397604.859375
0.30,1684397604.875
-13.97,1684397604.890625
-28.98,1684397604.90625
-44.88,1684397604.921875
-61.35,1684397604.9375
-77.68,1684397604.953125
-92.98,1684397604.96875
-106.58,1684397604.984375
-118.39,1684397605.0
-129.15,1684397605.015625
-140.37,1684397605.03125
-154.08,1684397605.046875
-171.93,1684397605.0625
-194.27,1684397605.078125
-219.09,1684397605.09375
-241.95,1684397605.109375
-256.69,1684397605.125
-257.17,1684397605.140625
-239.23,1684397605.15625
-202.28,1684397605.171875
-149.67,1684397605.1875
-87.66,1684397605.203125
-23.75,1684397605.21875
35.42,1684397605.234375
85.29,1684397605.25
123.97,1684397605.265625
151.73,1684397605.28125
170.27,1684397605.296875
181.78,1684397605.3125
188.16,1684397605.328125
190.69,1684397605.34375
189.90,1684397605.359375
185.86,1684397605.375
178.48,1684397605.390625
167.99,1684397605.40625
155.04,1684397605.421875
140.62,1684397605.4375
125.87,1684397605.453125
111.78,1684397605.46875
99.09,1684397605.484375
88.12,1684397605.5
78.85,1684397605.515625
70.94,1684397605.53125
63.79,1684397605.546875
56.64,1684397605.5625
48.68,1684397605.578125
39.26,1684397605.59375
27.95,1684397605.609375
14.66,1684397605.625
-0.44,1684397605.640625
-17.00,1684397605.65625
-34.54,1684397605.671875
-52.60,1684397605.6875
-70.70,1684397605.703125
-88.44,1684397605.71875
-105.51,1684397605.734375
-121.71,1684397605.75
-136.91,1684397605.765625
-151.16,1684397605.78125
-164.65,1684397605.796875
-177.91,1684397605.8125
-191.92,1684397605.828125
-207.96,1684397605.84375
-226.97,1684397605.859375
-248.65,1684397605.875
-270.73,1684397605.890625
-288.86,1684397605.90625
-297.58,1684397605.921875
-292.00,1684397605.9375
-269.43,1684397605.953125
-230.33,1684397605.96875
-178.03,1684397605.984375
-117.59,1684397606.0
-54.49,1684397606.015625
6.37,1684397606.03125
61.07,1684397606.046875
106.86,1684397606.0625
142.11,1684397606.078125
166.56,1684397606.09375
181.25,1684397606.109375
188.21,1684397606.125
189.75,1684397606.140625
187.63,1684397606.15625
182.67,1684397606.171875
174.98,1684397606.1875
164.53,1684397606.203125
151.82,1684397606.21875
138.04,1684397606.234375
124.76,1684397606.25
113.40,1684397606.265625
104.66,1684397606.28125
98.39,1684397606.296875
93.79,1684397606.3125
89.70,1684397606.328125
85.09,1684397606.34375
79.23,1684397606.359375
71.78,1684397606.375
62.73,1684397606.390625
52.11,1684397606.40625
39.94,1684397606.421875
26.17,1684397606.4375
10.72,1684397606.453125
-6.33,1684397606.46875
-24.62,1684397606.484375
-43.59,1684397606.5
-62.46,1684397606.515625
-80.62,1684397606.53125
-97.69,1684397606.546875
-113.61,1684397606.5625
-128.60,1684397606.578125
-143.01,1684397606.59375
-157.39,1684397606.609375
-172.46,1684397606.625
-189.22,1684397606.640625
-208.53,1684397606.65625
-230.52,1684397606.671875
-253.67,1684397606.6875
-274.51,1684397606.703125
-288.14,1684397606.71875
-289.64,1684397606.734375
-275.83,1684397606.75
-246.43,1684397606.765625
-204.04,1684397606.78125
-152.93,1684397606.796875
-97.28,1684397606.8125
-40.14,1684397606.828125
16.63,1684397606.84375
71.58,1684397606.859375
122.71,1684397606.875
167.40,1684397606.890625
203.11,1684397606.90625
228.45,1684397606.921875
243.79,1684397606.9375
251.03,1684397606.953125
252.53,1684397606.96875
249.99,1684397606.984375
243.97,1684397607.0
234.27,1684397607.015625
220.73,1684397607.03125
204.01,1684397607.046875
185.71,1684397607.0625
167.94,1684397607.078125
152.57,1684397607.09375
140.56,1684397607.109375
131.70,1684397607.125
124.84,1684397607.140625
118.42,1684397607.15625
111.00,1684397607.171875
101.66,1684397607.1875
90.17,1684397607.203125
76.88,1684397607.21875
62.50,1684397607.234375
47.71,1684397607.25
33.04,1684397607.265625
18.69,1684397607.28125
4.55,1684397607.296875
-9.67,1684397607.3125
-24.28,1684397607.328125
-39.50,1684397607.34375
-55.28,1684397607.359375
-71.35,1684397607.375
-87.26,1684397607.390625
-102.48,1684397607.40625
-116.54,1684397607.421875
-129.21,1684397607.4375
-140.60,1684397607.453125
-151.38,1684397607.46875
-162.69,1684397607.484375
-175.97,1684397607.5
-192.22,1684397607.515625
-211.16,1684397607.53125
-230.45,1684397607.546875
-245.79,1684397607.5625
-251.80,1684397607.578125
-243.80,1684397607.59375
-219.26,1684397607.609375
-178.61,1684397607.625
-124.95,1684397607.640625
-63.00,1684397607.65625
2.05,1684397607.671875
65.37,1684397607.6875
122.81,1684397607.703125
171.06,1684397607.71875
207.96,1684397607.734375
232.83,1684397607.75
246.64,1684397607.765625
251.68,1684397607.78125
250.73,1684397607.796875
246.06,1684397607.8125
238.81,1684397607.828125
229.12,1684397607.84375
216.69,1684397607.859375
201.53,1684397607.875
184.32,1684397607.890625
166.33,1684397607.90625
149.02,1684397607.921875
133.60,1684397607.9375
120.78,1684397607.953125
110.70,1684397607.96875
102.90,1684397607.984375
96.52,1684397608.0
90.40,1684397608.015625
83.38,1684397608.03125
74.51,1684397608.046875
63.30,1684397608.0625
49.83,1684397608.078125
34.56,1684397608.09375
18.11,1684397608.109375
0.98,1684397608.125
-16.68,1684397608.140625
-34.93,1684397608.15625
-53.89,1684397608.171875
-73.51,1684397608.1875
-93.40,1684397608.203125
-112.93,1684397608.21875
-131.50,1684397608.234375
-148.69,1684397608.25
-164.42,1684397608.265625
-179.01,1684397608.28125
-193.16,1684397608.296875
-207.91,1684397608.3125
-224.49,1684397608.328125
-243.81,1684397608.34375
-265.61,1684397608.359375
-287.80,1684397608.375
-306.24,1684397608.390625
-315.61,1684397608.40625
-310.89,1684397608.421875
-289.09,1684397608.4375
-250.25,1684397608.453125
-197.41,1684397608.46875
-135.57,1684397608.484375
-70.37,1684397608.5
-7.00,1684397608.515625
50.36,1684397608.53125
98.71,1684397608.546875
136.22,1684397608.5625
162.43,1684397608.578125
178.25,1684397608.59375
185.62,1684397608.609375
186.88,1684397608.625
184.06,1684397608.640625
178.41,1684397608.65625
170.43,1684397608.671875
160.37,1684397608.6875
148.74,1684397608.703125
136.49,1684397608.71875
124.82,1684397608.734375
114.81,1684397608.75
106.99,1684397608.765625
101.30,1684397608.78125
97.08,1684397608.796875
93.39,1684397608.8125
89.23,1684397608.828125
83.77,1684397608.84375
76.50,1684397608.859375
67.25,1684397608.875
56.18,1684397608.890625
43.56,1684397608.90625
29.73,1684397608.921875
14.90,1684397608.9375
-0.77,1684397608.953125
-17.25,1684397608.96875
-34.36,1684397608.984375
-51.83,1684397609.0
-69.24,1684397609.015625
-86.11,1684397609.03125
-102.02,1684397609.046875
-116.66,1684397609.0625
-129.98,1684397609.078125
-142.17,1684397609.09375
-153.80,1684397609.109375
-165.91,1684397609.125
-179.82,1684397609.140625
-196.55,1684397609.15625
-215.84,1684397609.171875
-235.45,1684397609.1875
-251.01,1684397609.203125
-257.12,1684397609.21875
-249.00,1684397609.234375
-224.29,1684397609.25
-183.71,1684397609.265625
-130.67,1684397609.28125
-70.06,1684397609.296875
-6.83,1684397609.3125
54.72,1684397609.328125
111.12,1684397609.34375
159.57,1684397609.359375
198.04,1684397609.375
225.66,1684397609.390625
243.02,1684397609.40625
252.04,1684397609.421875
255.22,1684397609.4375
254.65,1684397609.453125
251.36,1684397609.46875
245.47,1684397609.484375
236.83,1684397609.5
225.80,1684397609.515625
213.51,1684397609.53125
201.59,1684397609.546875
191.61,1684397609.5625
184.47,1684397609.578125
180.36,1684397609.59375
178.77,1684397609.609375
178.96,1684397609.625
180.12,1684397609.640625
181.54,1684397609.65625
182.59,1684397609.671875
182.73,1684397609.6875
181.50,1684397609.703125
178.64,1684397609.71875
174.11,1684397609.734375
168.03,1684397609.75
160.57,1684397609.765625
151.90,1684397609.78125
141.90,1684397609.796875
130.29,1684397609.8125
116.65,1684397609.828125
100.73,1684397609.84375
82.72,1684397609.859375
63.46,1684397609.875
44.29,1684397609.890625
26.57,1684397609.90625
11.07,1684397609.921875
-2.47,1684397609.9375
-15.51,1684397609.953125
-30.29,1684397609.96875
-49.21,1684397609.984375
-74.20,1684397610.0
-106.46,1684397610.015625
-146.14,1684397610.03125
-191.92,1684397610.046875
-240.47,1684397610.0625
-286.18,1684397610.078125
-321.79,1684397610.09375
-340.20,1684397610.109375
-336.92,1684397610.125
-311.92,1684397610.140625
-269.98,1684397610.15625
-219.05,1684397610.171875
-167.38,1684397610.1875
-120.91,1684397610.203125
-81.99,1684397610.21875
-50.07,1684397610.234375
-23.32,1684397610.25
-0.33,1684397610.265625
19.22,1684397610.28125
34.93,1684397610.296875
46.43,1684397610.3125
54.14,1684397610.328125
59.11,1684397610.34375
62.62,1684397610.359375
65.58,1684397610.375
68.31,1684397610.390625
70.57,1684397610.40625
72.00,1684397610.421875
72.56,1684397610.4375
72.62,1684397610.453125
72.87,1684397610.46875
73.98,1684397610.484375
76.21,1684397610.5
79.07,1684397610.515625
81.42,1684397610.53125
81.67,1684397610.546875
78.35,1684397610.5625
70.63,1684397610.578125
58.64,1684397610.59375
43.45,1684397610.609375
26.68,1684397610.625
10.01,1684397610.640625
-5.49,1684397610.65625
-19.58,1684397610.671875
-32.91,1684397610.6875
-46.48,1684397610.703125
-61.16,1684397610.71875
-77.31,1684397610.734375
-94.58,1684397610.75
-112.21,1684397610.765625
-129.27,1684397610.78125
-145.08,1684397610.796875
-159.39,1684397610.8125
-172.47,1684397610.828125
-185.11,1684397610.84375
-198.60,1684397610.859375
-214.50,1684397610.875
-234.09,1684397610.890625
-257.60,1684397610.90625
-283.33,1684397610.921875
-307.31,1684397610.9375
-323.92,1684397610.953125
-327.32,1684397610.96875
-313.22,1684397610.984375
-280.32,1684397611.0
-230.74,1684397611.015625
-169.45,1684397611.03125
-102.92,1684397611.046875
-37.66,1684397611.0625
20.98,1684397611.078125
69.45,1684397611.09375
106.17,1684397611.109375
131.26,1684397611.125
146.18,1684397611.140625
153.08,1684397611.15625
154.25,1684397611.171875
151.56,1684397611.1875
146.26,1684397611.203125
139.02,1684397611.21875
130.28,1684397611.234375
120.55,1684397611.25
110.55,1684397611.265625
101.09,1684397611.28125
92.90,1684397611.296875
86.41,1684397611.3125
81.67,1684397611.328125
78.29,1684397611.34375
75.49,1684397611.359375
72.39,1684397611.375
68.13,1684397611.390625
62.08,1684397611.40625
53.91,1684397611.421875
43.61,1684397611.4375
31.34,1684397611.453125
17.25,1684397611.46875
1.48,1684397611.484375
-15.91,1684397611.5
-34.69,1684397611.515625
-54.45,1684397611.53125
-74.50,1684397611.546875
-94.01,1684397611.5625
-112.23,1684397611.578125
-128.70,1684397611.59375
-143.43,1684397611.609375
-156.85,1684397611.625
-169.74,1684397611.640625
-183.09,1684397611.65625
-197.90,1684397611.671875
-215.01,1684397611.6875
-234.65,1684397611.703125
-256.07,1684397611.71875
-277.10,1684397611.734375
-294.21,1684397611.75
-303.16,1684397611.765625
-300.17,1684397611.78125
-283.15,1684397611.796875
-252.51,1684397611.8125
-210.87,1684397611.828125
-162.06,1684397611.84375
-109.62,1684397611.859375
-55.79,1684397611.875
-1.59,1684397611.890625
52.49,1684397611.90625
105.27,1684397611.921875
154.45,1684397611.9375
196.97,1684397611.953125
230.05,1684397611.96875
252.27,1684397611.984375
263.95,1684397612.0
266.84,1684397612.015625
263.14,1684397612.03125
254.75,1684397612.046875
242.94,1684397612.0625
228.60,1684397612.078125
212.78,1684397612.09375
196.93,1684397612.109375
182.71,1684397612.125
171.39,1684397612.140625
163.29,1684397612.15625
157.52,1684397612.171875
152.29,1684397612.1875
145.61,1684397612.203125
136.06,1684397612.21875
123.25,1684397612.234375
107.87,1684397612.25
91.20,1684397612.265625
74.40,1684397612.28125
58.03,1684397612.296875
41.85,1684397612.3125
25.04,1684397612.328125
6.82,1684397612.34375
-13.13,1684397612.359375
-34.38,1684397612.375
-55.91,1684397612.390625
-76.54,1684397612.40625
-95.43,1684397612.421875
-112.37,1684397612.4375
-127.79,1684397612.453125
-142.61,1684397612.46875
-157.93,1684397612.484375
-174.89,1684397612.5
-194.40,1684397612.515625
-216.77,1684397612.53125
-241.21,1684397612.546875
-265.37,1684397612.5625
-285.36,1684397612.578125
-296.52,1684397612.59375
-294.72,1684397612.609375
-277.74,1684397612.625
-246.15,1684397612.640625
-202.84,1684397612.65625
-151.80,1684397612.671875
-96.59,1684397612.6875
-39.53,1684397612.703125
18.09,1684397612.71875
75.00,1684397612.734375
129.02,1684397612.75
177.07,1684397612.765625
215.93,1684397612.78125
243.58,1684397612.796875
259.95,1684397612.8125
266.79,1684397612.828125
266.72,1684397612.84375
262.08,1684397612.859375
254.24,1684397612.875
243.67,1684397612.890625
230.58,1684397612.90625
215.61,1684397612.921875
200.05,1684397612.9375
185.59,1684397612.953125
173.69,1684397612.96875
164.99,1684397612.984375
159.11,1684397613.0
154.68,1684397613.015625
149.88,1684397613.03125
143.03,1684397613.046875
133.05,1684397613.0625
119.83,1684397613.078125
104.05,1684397613.09375
86.89,1684397613.109375
69.47,1684397613.125
52.50,1684397613.140625
36.02,1684397613.15625
19.61,1684397613.171875
2.66,1684397613.1875
-15.30,1684397613.203125
-34.29,1684397613.21875
-53.91,1684397613.234375
-73.43,1684397613.25
-92.11,1684397613.265625
-109.35,1684397613.28125
-124.95,1684397613.296875
-139.22,1684397613.3125
-152.95,1684397613.328125
-167.48,1684397613.34375
-184.39,1684397613.359375
-205.02,1684397613.375
-229.66,1684397613.390625
-256.82,1684397613.40625
-282.76,1684397613.421875
-302.08,1684397613.4375
-309.02,1684397613.453125
-299.25,1684397613.46875
-271.23,1684397613.484375
-226.59,1684397613.5
-169.51,1684397613.515625
-105.51,1684397613.53125
-40.19,1684397613.546875
21.62,1684397613.5625
76.10,1684397613.578125
120.69,1684397613.59375
154.14,1684397613.609375
176.57,1684397613.625
189.35,1684397613.640625
194.54,1684397613.65625
194.21,1684397613.671875
189.83,1684397613.6875
182.16,1684397613.703125
171.58,1684397613.71875
158.62,1684397613.734375
144.28,1684397613.75
129.81,1684397613.765625
116.45,1684397613.78125
104.96,1684397613.796875
95.46,1684397613.8125
87.56,1684397613.828125
80.62,1684397613.84375
73.94,1684397613.859375
66.92,1684397613.875
59.18,1684397613.890625
50.44,1684397613.90625
40.54,1684397613.921875
29.30,1684397613.9375
16.44,1684397613.953125
1.72,1684397613.96875
-14.94,1684397613.984375
-33.35,1684397614.0
-52.88,1684397614.015625
-72.61,1684397614.03125
-91.62,1684397614.046875
-109.23,1684397614.0625
-125.28,1684397614.078125
-140.19,1684397614.09375
-154.73,1684397614.109375
-169.80,1684397614.125
-186.30,1684397614.140625
-204.89,1684397614.15625
-225.77,1684397614.171875
-248.20,1684397614.1875
-269.98,1684397614.203125
-287.50,1684397614.21875
-296.34,1684397614.234375
-292.55,1684397614.25
-273.98,1684397614.265625
-241.13,1684397614.28125
-196.80,1684397614.296875
-144.89,1684397614.3125
-88.97,1684397614.328125
-31.40,1684397614.34375
26.43,1684397614.359375
83.15,1684397614.375
136.56,1684397614.390625
183.57,1684397614.40625
221.02,1684397614.421875
246.95,1684397614.4375
261.39,1684397614.453125
266.09,1684397614.46875
263.64,1684397614.484375
256.31,1684397614.5
245.51,1684397614.515625
231.91,1684397614.53125
216.10,1684397614.546875
199.12,1684397614.5625
182.57,1684397614.578125
168.13,1684397614.59375
156.81,1684397614.609375
148.56,1684397614.625
142.14,1684397614.640625
135.74,1684397614.65625
127.69,1684397614.671875
116.99,1684397614.6875
103.63,1684397614.703125
88.41,1684397614.71875
72.43,1684397614.734375
56.48,1684397614.75
40.79,1684397614.765625
24.92,1684397614.78125
8.18,1684397614.796875
-9.95,1684397614.8125
-29.48,1684397614.828125
-49.80,1684397614.84375
-69.97,1684397614.859375
-89.18,1684397614.875
-107.00,1684397614.890625
-123.59,1684397614.90625
-139.48,1684397614.921875
