1683446084.00,timestamp
-0.00,1683446084.0
-0.00,1683446084.015625
-0.00,1683446084.03125
-0.00,1683446084.046875
-0.00,1683446084.0625
-0.00,1683446084.078125
-0.00,1683446084.09375
-0.00,1683446084.109375
-0.00,1683446084.125
-0.00,1683446084.140625
0.00,1683446084.15625
0.01,1683446084.171875
0.01,1683446084.1875
-0.00,1683446084.203125
-0.03,1683446084.21875
-0.05,1683446084.234375
-0.05,1683446084.25
0.00,1683446084.265625
0.13,1683446084.28125
0.36,1683446084.296875
0.66,1683446084.3125
1.01,1683446084.328125
1.37,1683446084.34375
1.72,1683446084.359375
2.06,1683446084.375
2.40,1683446084.390625
2.79,1683446084.40625
3.24,1683446084.421875
3.80,1683446084.4375
4.42,1683446084.453125
5.06,1683446084.46875
5.66,1683446084.484375
6.20,1683446084.5
6.68,1683446084.515625
7.15,1683446084.53125
7.68,1683446084.546875
8.31,1683446084.5625
9.14,1683446084.578125
10.09,1683446084.59375
11.04,1683446084.609375
11.88,1683446084.625
12.56,1683446084.640625
13.14,1683446084.65625
13.76,1683446084.671875
14.65,1683446084.6875
15.96,1683446084.703125
17.91,1683446084.71875
20.32,1683446084.734375
22.90,1683446084.75
25.38,1683446084.765625
27.58,1683446084.78125
29.57,1683446084.796875
31.68,1683446084.8125
34.32,1683446084.828125
37.81,1683446084.84375
42.54,1683446084.859375
48.15,1683446084.875
54.10,1683446084.890625
59.83,1683446084.90625
64.97,1683446084.921875
69.58,1683446084.9375
74.14,1683446084.953125
79.34,1683446084.96875
85.71,1683446084.984375
93.76,1683446085.0
103.00,1683446085.015625
112.62,1683446085.03125
121.73,1683446085.046875
129.77,1683446085.0625
136.75,1683446085.078125
143.30,1683446085.09375
150.75,1683446085.109375
157.77,1683446085.125
166.64,1683446085.140625
177.95,1683446085.15625
191.79,1683446085.171875
206.97,1683446085.1875
220.57,1683446085.203125
228.25,1683446085.21875
225.36,1683446085.234375
208.53,1683446085.25
176.87,1683446085.265625
132.76,1683446085.28125
80.05,1683446085.296875
23.07,1683446085.3125
-34.94,1683446085.328125
-92.44,1683446085.34375
-149.15,1683446085.359375
-205.23,1683446085.375
-260.37,1683446085.390625
-313.75,1683446085.40625
-363.88,1683446085.421875
-409.84,1683446085.4375
-450.90,1683446085.453125
-486.48,1683446085.46875
-515.70,1683446085.484375
-537.19,1683446085.5
-549.21,1683446085.515625
-550.02,1683446085.53125
-538.54,1683446085.546875
-514.50,1683446085.5625
-479.08,1683446085.578125
-434.36,1683446085.59375
-382.96,1683446085.609375
-327.53,1683446085.625
-270.34,1683446085.640625
-213.16,1683446085.65625
-157.25,1683446085.671875
-103.65,1683446085.6875
-53.20,1683446085.703125
-6.83,1683446085.71875
34.61,1683446085.734375
70.46,1683446085.75
100.42,1683446085.765625
124.58,1683446085.78125
143.40,1683446085.796875
157.54,1683446085.8125
167.71,1683446085.828125
174.62,1683446085.84375
178.74,1683446085.859375
180.44,1683446085.875
179.97,1683446085.890625
177.52,1683446085.90625
173.30,1683446085.921875
167.55,1683446085.9375
160.61,1683446085.953125
152.84,1683446085.96875
144.65,1683446085.984375
136.41,1683446086.0
128.39,1683446086.015625
120.68,1683446086.03125
113.16,1683446086.046875
105.61,1683446086.0625
97.75,1683446086.078125
89.47,1683446086.09375
80.88,1683446086.109375
72.32,1683446086.125
64.27,1683446086.140625
57.10,1683446086.15625
50.92,1683446086.171875
45.48,1683446086.1875
40.27,1683446086.203125
34.75,1683446086.21875
28.57,1683446086.234375
21.83,1683446086.25
15.01,1683446086.265625
8.78,1683446086.28125
3.68,1683446086.296875
-0.10,1683446086.3125
-2.85,1683446086.328125
-5.13,1683446086.34375
-7.60,1683446086.359375
-10.79,1683446086.375
-15.10,1683446086.390625
-20.66,1683446086.40625
-27.19,1683446086.421875
-33.65,1683446086.4375
-38.17,1683446086.453125
-38.46,1683446086.46875
-32.70,1683446086.484375
-20.62,1683446086.5
-3.92,1683446086.515625
14.15,1683446086.53125
30.07,1683446086.546875
41.45,1683446086.5625
47.79,1683446086.578125
50.24,1683446086.59375
50.50,1683446086.609375
49.84,1683446086.625
48.57,1683446086.640625
46.35,1683446086.65625
42.92,1683446086.671875
38.64,1683446086.6875
34.35,1683446086.703125
31.00,1683446086.71875
29.08,1683446086.734375
28.54,1683446086.75
28.91,1683446086.765625
29.58,1683446086.78125
29.95,1683446086.796875
29.52,1683446086.8125
27.92,1683446086.828125
25.00,1683446086.84375
20.94,1683446086.859375
16.33,1683446086.875
11.98,1683446086.890625
8.69,1683446086.90625
6.88,1683446086.921875
6.54,1683446086.9375
7.22,1683446086.953125
8.34,1683446086.96875
9.36,1683446086.984375
9.97,1683446087.0
10.01,1683446087.015625
9.42,1683446087.03125
8.21,1683446087.046875
6.38,1683446087.0625
4.08,1683446087.078125
1.53,1683446087.09375
-0.97,1683446087.109375
-3.09,1683446087.125
-4.60,1683446087.140625
-5.39,1683446087.15625
-5.55,1683446087.171875
-5.30,1683446087.1875
-4.93,1683446087.203125
-4.72,1683446087.21875
-4.84,1683446087.234375
-5.30,1683446087.25
-5.96,1683446087.265625
-6.55,1683446087.28125
-6.84,1683446087.296875
-6.69,1683446087.3125
-6.12,1683446087.328125
-5.31,1683446087.34375
-4.49,1683446087.359375
-3.86,1683446087.375
-3.44,1683446087.390625
-3.13,1683446087.40625
-2.81,1683446087.421875
-2.39,1683446087.4375
-1.84,1683446087.453125
-1.15,1683446087.46875
-0.31,1683446087.484375
0.74,1683446087.5
1.98,1683446087.515625
3.30,1683446087.53125
4.49,1683446087.546875
5.29,1683446087.5625
5.54,1683446087.578125
5.29,1683446087.59375
4.73,1683446087.609375
4.20,1683446087.625
4.00,1683446087.640625
4.32,1683446087.65625
5.20,1683446087.671875
6.59,1683446087.6875
8.15,1683446087.703125
9.49,1683446087.71875
10.23,1683446087.734375
10.04,1683446087.75
8.77,1683446087.765625
6.56,1683446087.78125
3.76,1683446087.796875
0.84,1683446087.8125
-1.86,1683446087.828125
-4.14,1683446087.84375
-5.98,1683446087.859375
-7.45,1683446087.875
-8.64,1683446087.890625
-9.52,1683446087.90625
-10.04,1683446087.921875
-10.13,1683446087.9375
-9.83,1683446087.953125
-9.26,1683446087.96875
-8.63,1683446087.984375
-8.12,1683446088.0
-7.81,1683446088.015625
-7.69,1683446088.03125
-7.61,1683446088.046875
-7.45,1683446088.0625
-7.14,1683446088.078125
-6.74,1683446088.09375
-6.38,1683446088.109375
-6.26,1683446088.125
-6.46,1683446088.140625
-6.94,1683446088.15625
-7.53,1683446088.171875
-7.99,1683446088.1875
-8.15,1683446088.203125
-7.99,1683446088.21875
-7.63,1683446088.234375
-7.27,1683446088.25
-7.06,1683446088.265625
-7.10,1683446088.28125
-7.31,1683446088.296875
-7.53,1683446088.3125
-7.53,1683446088.328125
-7.05,1683446088.34375
-5.83,1683446088.359375
-3.71,1683446088.375
-0.60,1683446088.390625
3.35,1683446088.40625
7.73,1683446088.421875
11.95,1683446088.4375
15.40,1683446088.453125
17.63,1683446088.46875
18.49,1683446088.484375
18.14,1683446088.5
16.94,1683446088.515625
15.29,1683446088.53125
13.40,1683446088.546875
11.26,1683446088.5625
8.72,1683446088.578125
5.70,1683446088.59375
2.37,1683446088.609375
-0.89,1683446088.625
-3.58,1683446088.640625
-5.39,1683446088.65625
-6.30,1683446088.671875
-6.34,1683446088.6875
-5.83,1683446088.703125
-5.10,1683446088.71875
-4.40,1683446088.734375
-3.78,1683446088.75
-3.23,1683446088.765625
-2.74,1683446088.78125
-2.38,1683446088.796875
-2.32,1683446088.8125
-2.70,1683446088.828125
-3.63,1683446088.84375
-5.08,1683446088.859375
-6.90,1683446088.875
-8.87,1683446088.890625
-10.81,1683446088.90625
-12.59,1683446088.921875
-14.22,1683446088.9375
-15.82,1683446088.953125
-17.56,1683446088.96875
-19.62,1683446088.984375
-22.09,1683446089.0
-24.87,1683446089.015625
-27.69,1683446089.03125
-30.11,1683446089.046875
-31.61,1683446089.0625
-31.59,1683446089.078125
-29.56,1683446089.09375
-25.20,1683446089.109375
-18.56,1683446089.125
-10.11,1683446089.140625
-0.64,1683446089.15625
8.81,1683446089.171875
17.29,1683446089.1875
24.10,1683446089.203125
28.88,1683446089.21875
31.62,1683446089.234375
32.50,1683446089.25
31.78,1683446089.265625
29.74,1683446089.28125
26.68,1683446089.296875
22.96,1683446089.3125
18.98,1683446089.328125
15.10,1683446089.34375
11.59,1683446089.359375
8.58,1683446089.375
6.04,1683446089.390625
3.86,1683446089.40625
1.94,1683446089.421875
0.27,1683446089.4375
-1.10,1683446089.453125
-2.06,1683446089.46875
-2.58,1683446089.484375
-2.77,1683446089.5
-2.92,1683446089.515625
-3.39,1683446089.53125
-4.49,1683446089.546875
-6.34,1683446089.5625
-8.85,1683446089.578125
-11.69,1683446089.59375
-14.49,1683446089.609375
-16.92,1683446089.625
-18.86,1683446089.640625
-20.40,1683446089.65625
-21.80,1683446089.671875
-23.40,1683446089.6875
-25.48,1683446089.703125
-28.14,1683446089.71875
-31.17,1683446089.734375
-34.05,1683446089.75
-35.96,1683446089.765625
-35.99,1683446089.78125
-33.47,1683446089.796875
-28.18,1683446089.8125
-20.49,1683446089.828125
-11.24,1683446089.84375
-1.54,1683446089.859375
7.59,1683446089.875
15.42,1683446089.890625
21.53,1683446089.90625
25.81,1683446089.921875
28.32,1683446089.9375
29.21,1683446089.953125
28.69,1683446089.96875
27.07,1683446089.984375
24.74,1683446090.0
22.18,1683446090.015625
19.82,1683446090.03125
17.99,1683446090.046875
16.84,1683446090.0625
16.31,1683446090.078125
16.27,1683446090.09375
16.53,1683446090.109375
16.94,1683446090.125
17.36,1683446090.140625
17.70,1683446090.15625
17.85,1683446090.171875
17.67,1683446090.1875
17.01,1683446090.203125
15.74,1683446090.21875
13.83,1683446090.234375
11.33,1683446090.25
8.45,1683446090.265625
5.46,1683446090.28125
2.61,1683446090.296875
0.06,1683446090.3125
-2.19,1683446090.328125
-4.35,1683446090.34375
-6.77,1683446090.359375
-9.76,1683446090.375
-13.46,1683446090.390625
-17.65,1683446090.40625
-21.78,1683446090.421875
-24.99,1683446090.4375
-26.39,1683446090.453125
-25.26,1683446090.46875
-21.30,1683446090.484375
-14.76,1683446090.5
-6.42,1683446090.515625
2.60,1683446090.53125
11.09,1683446090.546875
18.06,1683446090.5625
22.93,1683446090.578125
25.55,1683446090.59375
26.12,1683446090.609375
25.01,1683446090.625
22.64,1683446090.640625
19.41,1683446090.65625
15.68,1683446090.671875
11.84,1683446090.6875
8.28,1683446090.703125
5.32,1683446090.71875
3.11,1683446090.734375
1.62,1683446090.75
0.70,1683446090.765625
0.14,1683446090.78125
-0.26,1683446090.796875
-0.64,1683446090.8125
-1.10,1683446090.828125
-1.76,1683446090.84375
-2.72,1683446090.859375
-4.04,1683446090.875
-5.72,1683446090.890625
-7.61,1683446090.90625
-9.53,1683446090.921875
-11.28,1683446090.9375
-12.76,1683446090.953125
-13.97,1683446090.96875
-15.08,1683446090.984375
-16.31,1683446091.0
-17.91,1683446091.015625
-20.02,1683446091.03125
-22.63,1683446091.046875
-25.49,1683446091.0625
-28.12,1683446091.078125
-29.86,1683446091.09375
-30.02,1683446091.109375
-28.00,1683446091.125
-23.55,1683446091.140625
-16.80,1683446091.15625
-8.36,1683446091.171875
0.90,1683446091.1875
9.96,1683446091.203125
17.94,1683446091.21875
24.25,1683446091.234375
28.55,1683446091.25
30.79,1683446091.265625
31.11,1683446091.28125
29.77,1683446091.296875
27.18,1683446091.3125
23.85,1683446091.328125
20.35,1683446091.34375
17.18,1683446091.359375
14.65,1683446091.375
12.79,1683446091.390625
11.40,1683446091.40625
10.20,1683446091.421875
8.96,1683446091.4375
7.63,1683446091.453125
6.40,1683446091.46875
5.53,1683446091.484375
5.25,1683446091.5
5.69,1683446091.515625
6.78,1683446091.53125
8.24,1683446091.546875
9.67,1683446091.5625
10.65,1683446091.578125
10.97,1683446091.59375
10.94,1683446091.609375
11.35,1683446091.625
13.24,1683446091.640625
17.39,1683446091.65625
23.75,1683446091.671875
31.33,1683446091.6875
38.49,1683446091.703125
43.82,1683446091.71875
46.92,1683446091.734375
48.81,1683446091.75
51.59,1683446091.765625
57.59,1683446091.78125
68.28,1683446091.796875
83.76,1683446091.8125
102.83,1683446091.828125
123.59,1683446091.84375
144.30,1683446091.859375
163.95,1683446091.875
182.42,1683446091.890625
200.34,1683446091.90625
218.77,1683446091.921875
238.82,1683446091.9375
261.00,1683446091.953125
284.69,1683446091.96875
307.80,1683446091.984375
326.88,1683446092.0
338.14,1683446092.015625
338.67,1683446092.03125
327.69,1683446092.046875
306.91,1683446092.0625
279.85,1683446092.078125
250.37,1683446092.09375
221.28,1683446092.109375
193.60,1683446092.125
166.79,1683446092.140625
139.65,1683446092.15625
111.17,1683446092.171875
81.00,1683446092.1875
49.55,1683446092.203125
17.98,1683446092.21875
-11.74,1683446092.234375
-36.96,1683446092.25
-54.91,1683446092.265625
-63.74,1683446092.28125
-63.65,1683446092.296875
-57.28,1683446092.3125
-48.87,1683446092.328125
-42.67,1683446092.34375
-41.11,1683446092.359375
-44.12,1683446092.375
-49.68,1683446092.390625
-55.29,1683446092.40625
-59.36,1683446092.421875
-61.72,1683446092.4375
-63.16,1683446092.453125
-64.61,1683446092.46875
-66.52,1683446092.484375
-68.95,1683446092.5
-72.02,1683446092.515625
-76.31,1683446092.53125
-82.76,1683446092.546875
-92.17,1683446092.5625
-104.65,1683446092.578125
-119.37,1683446092.59375
-134.81,1683446092.609375
-149.22,1683446092.625
-161.09,1683446092.640625
-169.43,1683446092.65625
-173.70,1683446092.671875
-173.77,1683446092.6875
-169.95,1683446092.703125
-163.07,1683446092.71875
-154.46,1683446092.734375
-145.85,1683446092.75
-138.96,1683446092.765625
-134.84,1683446092.78125
-133.51,1683446092.796875
-134.00,1683446092.8125
-134.82,1683446092.828125
-134.75,1683446092.84375
-133.30,1683446092.859375
-130.81,1683446092.875
-127.97,1683446092.890625
-125.14,1683446092.90625
-122.03,1683446092.921875
-117.76,1683446092.9375
-111.45,1683446092.953125
-102.71,1683446092.96875
-91.95,1683446092.984375
-80.07,1683446093.0
-67.87,1683446093.015625
-55.60,1683446093.03125
-42.87,1683446093.046875
-29.21,1683446093.0625
-14.65,1683446093.078125
-0.16,1683446093.09375
12.44,1683446093.109375
21.16,1683446093.125
24.69,1683446093.140625
22.93,1683446093.15625
16.88,1683446093.171875
8.14,1683446093.1875
-1.79,1683446093.203125
-11.91,1683446093.21875
-21.67,1683446093.234375
-30.65,1683446093.25
-38.43,1683446093.265625
-44.67,1683446093.28125
-49.34,1683446093.296875
-52.81,1683446093.3125
-55.79,1683446093.328125
-58.85,1683446093.34375
-62.20,1683446093.359375
-65.51,1683446093.375
-68.22,1683446093.390625
-69.84,1683446093.40625
-70.28,1683446093.421875
-69.81,1683446093.4375
-68.86,1683446093.453125
-67.63,1683446093.46875
-65.94,1683446093.484375
-63.24,1683446093.5
-58.94,1683446093.515625
-52.66,1683446093.53125
-44.41,1683446093.546875
-34.68,1683446093.5625
-24.19,1683446093.578125
-13.84,1683446093.59375
-4.51,1683446093.609375
2.96,1683446093.625
7.86,1683446093.640625
9.78,1683446093.65625
8.83,1683446093.671875
5.85,1683446093.6875
2.18,1683446093.703125
-0.80,1683446093.71875
-2.22,1683446093.734375
-2.17,1683446093.75
-1.49,1683446093.765625
-1.28,1683446093.78125
-2.29,1683446093.796875
-4.62,1683446093.8125
-7.92,1683446093.828125
-11.79,1683446093.84375
-16.15,1683446093.859375
-21.14,1683446093.875
-26.77,1683446093.890625
-32.61,1683446093.90625
-37.82,1683446093.921875
-41.53,1683446093.9375
-43.31,1683446093.953125
-43.46,1683446093.96875
-42.79,1683446093.984375
-42.20,1683446094.0
-42.25,1683446094.015625
-43.12,1683446094.03125
-44.86,1683446094.046875
-47.69,1683446094.0625
-52.09,1683446094.078125
-58.49,1683446094.09375
-66.84,1683446094.109375
-76.40,1683446094.125
-85.94,1683446094.140625
-94.30,1683446094.15625
-100.92,1683446094.171875
-106.07,1683446094.1875
-110.61,1683446094.203125
-115.45,1683446094.21875
-121.12,1683446094.234375
-127.59,1683446094.25
-134.42,1683446094.265625
-140.80,1683446094.28125
-145.63,1683446094.296875
-147.38,1683446094.3125
-144.28,1683446094.328125
-134.66,1683446094.34375
-117.72,1683446094.359375
-94.06,1683446094.375
-65.85,1683446094.390625
-36.37,1683446094.40625
-9.03,1683446094.421875
13.59,1683446094.4375
30.27,1683446094.453125
41.27,1683446094.46875
47.78,1683446094.484375
51.18,1683446094.5
52.57,1683446094.515625
52.46,1683446094.53125
50.93,1683446094.546875
47.97,1683446094.5625
43.83,1683446094.578125
39.05,1683446094.59375
34.45,1683446094.609375
30.66,1683446094.625
27.78,1683446094.640625
25.23,1683446094.65625
22.13,1683446094.671875
18.00,1683446094.6875
13.23,1683446094.703125
9.16,1683446094.71875
7.25,1683446094.734375
8.46,1683446094.75
12.50,1683446094.765625
17.91,1683446094.78125
22.70,1683446094.796875
25.09,1683446094.8125
23.86,1683446094.828125
18.07,1683446094.84375
6.42,1683446094.859375
-13.40,1683446094.875
-43.65,1683446094.890625
-85.41,1683446094.90625
-137.43,1683446094.921875
-195.56,1683446094.9375
-253.24,1683446094.953125
-302.83,1683446094.96875
-337.50,1683446094.984375
-352.93,1683446095.0
-349.19,1683446095.015625
-329.42,1683446095.03125
-298.76,1683446095.046875
-262.78,1683446095.0625
-226.30,1683446095.078125
-192.78,1683446095.09375
-164.32,1683446095.109375
-141.80,1683446095.125
-125.18,1683446095.140625
-115.03,1683446095.15625
-110.63,1683446095.171875
-109.91,1683446095.1875
-109.89,1683446095.203125
-107.42,1683446095.21875
-99.94,1683446095.234375
-86.05,1683446095.25
-65.07,1683446095.265625
-36.33,1683446095.28125
-0.55,1683446095.296875
42.54,1683446095.3125
93.04,1683446095.328125
149.51,1683446095.34375
207.54,1683446095.359375
259.99,1683446095.375
298.35,1683446095.390625
316.27,1683446095.40625
323.25,1683446095.421875
326.90,1683446095.4375
334.25,1683446095.453125
348.29,1683446095.46875
367.31,1683446095.484375
386.56,1683446095.5
401.41,1683446095.515625
409.07,1683446095.53125
410.20,1683446095.546875
407.80,1683446095.5625
403.29,1683446095.578125
397.35,1683446095.59375
388.26,1683446095.609375
375.76,1683446095.625
360.25,1683446095.640625
343.26,1683446095.65625
326.16,1683446095.671875
310.83,1683446095.6875
298.47,1683446095.703125
287.88,1683446095.71875
277.28,1683446095.734375
264.64,1683446095.75
248.27,1683446095.765625
226.23,1683446095.78125
202.21,1683446095.796875
177.94,1683446095.8125
154.81,1683446095.828125
133.85,1683446095.84375
114.46,1683446095.859375
95.88,1683446095.875
77.38,1683446095.890625
58.67,1683446095.90625
39.70,1683446095.921875
20.55,1683446095.9375
0.66,1683446095.953125
-20.18,1683446095.96875
-41.94,1683446095.984375
-64.86,1683446096.0
-88.78,1683446096.015625
-113.21,1683446096.03125
-137.51,1683446096.046875
-161.18,1683446096.0625
-184.12,1683446096.078125
-207.05,1683446096.09375
-230.57,1683446096.109375
-254.99,1683446096.125
-280.78,1683446096.140625
-308.23,1683446096.15625
-337.11,1683446096.171875
-365.93,1683446096.1875
-391.50,1683446096.203125
-409.72,1683446096.21875
-416.30,1683446096.234375
-408.18,1683446096.25
-384.87,1683446096.265625
-349.92,1683446096.28125
-308.78,1683446096.296875
-266.21,1683446096.3125
-224.11,1683446096.328125
-181.73,1683446096.34375
-138.87,1683446096.359375
-96.36,1683446096.375
-56.53,1683446096.390625
-21.93,1683446096.40625
4.21,1683446096.421875
20.53,1683446096.4375
27.16,1683446096.453125
24.94,1683446096.46875
14.23,1683446096.484375
-6.74,1683446096.5
-37.59,1683446096.515625
-73.67,1683446096.53125
-106.10,1683446096.546875
-127.49,1683446096.5625
-133.07,1683446096.578125
-122.99,1683446096.59375
-101.21,1683446096.609375
-73.67,1683446096.625
-48.36,1683446096.640625
-29.78,1683446096.65625
-17.95,1683446096.671875
-9.09,1683446096.6875
-1.09,1683446096.703125
7.06,1683446096.71875
13.83,1683446096.734375
16.50,1683446096.75
28.39,1683446096.765625
52.66,1683446096.78125
81.70,1683446096.796875
90.07,1683446096.8125
76.32,1683446096.828125
45.46,1683446096.84375
10.71,1683446096.859375
-18.51,1683446096.875
-34.65,1683446096.890625
-33.36,1683446096.90625
-17.19,1683446096.921875
8.07,1683446096.9375
43.70,1683446096.953125
82.69,1683446096.96875
112.67,1683446096.984375
127.56,1683446097.0
129.18,1683446097.015625
123.31,1683446097.03125
114.36,1683446097.046875
102.01,1683446097.0625
85.43,1683446097.078125
65.43,1683446097.09375
45.27,1683446097.109375
27.55,1683446097.125
14.45,1683446097.140625
5.95,1683446097.15625
0.73,1683446097.171875
-3.32,1683446097.1875
-8.91,1683446097.203125
-17.19,1683446097.21875
-26.96,1683446097.234375
-36.02,1683446097.25
-42.89,1683446097.265625
-46.47,1683446097.28125
-47.08,1683446097.296875
-45.93,1683446097.3125
-44.53,1683446097.328125
-44.53,1683446097.34375
-46.65,1683446097.359375
-50.76,1683446097.375
-55.60,1683446097.390625
-60.25,1683446097.40625
-63.89,1683446097.421875
-66.20,1683446097.4375
-66.96,1683446097.453125
-65.59,1683446097.46875
-60.89,1683446097.484375
-50.44,1683446097.5
-37.66,1683446097.515625
-23.39,1683446097.53125
-8.35,1683446097.546875
6.87,1683446097.5625
21.76,1683446097.578125
36.11,1683446097.59375
50.25,1683446097.609375
65.08,1683446097.625
81.81,1683446097.640625
101.34,1683446097.65625
124.40,1683446097.671875
150.09,1683446097.6875
175.87,1683446097.703125
198.05,1683446097.71875
212.87,1683446097.734375
217.99,1683446097.75
213.41,1683446097.765625
201.59,1683446097.78125
186.55,1683446097.796875
173.13,1683446097.8125
164.53,1683446097.828125
161.54,1683446097.84375
162.51,1683446097.859375
164.25,1683446097.875
163.30,1683446097.890625
157.19,1683446097.90625
145.17,1683446097.921875
128.25,1683446097.9375
109.06,1683446097.953125
90.36,1683446097.96875
74.27,1683446097.984375
61.75,1683446098.0
52.70,1683446098.015625
46.48,1683446098.03125
42.38,1683446098.046875
39.94,1683446098.0625
38.97,1683446098.078125
39.54,1683446098.09375
41.51,1683446098.109375
44.37,1683446098.125
47.30,1683446098.140625
49.20,1683446098.15625
48.79,1683446098.171875
44.85,1683446098.1875
36.56,1683446098.203125
23.89,1683446098.21875
7.85,1683446098.234375
-9.83,1683446098.25
-27.14,1683446098.265625
-42.45,1683446098.28125
-54.76,1683446098.296875
-63.68,1683446098.3125
-69.00,1683446098.328125
-70.48,1683446098.34375
-67.85,1683446098.359375
-61.24,1683446098.375
-51.57,1683446098.390625
-40.78,1683446098.40625
-31.29,1683446098.421875
-25.24,1683446098.4375
-23.60,1683446098.453125
-25.81,1683446098.46875
-30.02,1683446098.484375
-33.88,1683446098.5
-35.42,1683446098.515625
-33.72,1683446098.53125
-29.07,1683446098.546875
-22.59,1683446098.5625
-15.63,1683446098.578125
-9.16,1683446098.59375
-3.49,1683446098.609375
1.67,1683446098.625
6.72,1683446098.640625
11.75,1683446098.65625
16.23,1683446098.671875
19.09,1683446098.6875
19.21,1683446098.703125
16.04,1683446098.71875
10.05,1683446098.734375
2.75,1683446098.75
-3.77,1683446098.765625
-7.64,1683446098.78125
-7.95,1683446098.796875
-5.13,1683446098.8125
-0.74,1683446098.828125
3.11,1683446098.84375
4.56,1683446098.859375
2.67,1683446098.875
-2.34,1683446098.890625
-9.20,1683446098.90625
-16.11,1683446098.921875
-21.35,1683446098.9375
-23.83,1683446098.953125
-23.42,1683446098.96875
-21.05,1683446098.984375
-18.34,1683446099.0
-17.10,1683446099.015625
-18.66,1683446099.03125
-23.34,1683446099.046875
-30.31,1683446099.0625
-37.76,1683446099.078125
-43.58,1683446099.09375
-45.93,1683446099.109375
-43.76,1683446099.125
-37.02,1683446099.140625
-26.51,1683446099.15625
-13.65,1683446099.171875
-0.10,1683446099.1875
12.45,1683446099.203125
22.47,1683446099.21875
28.80,1683446099.234375
30.81,1683446099.25
28.55,1683446099.265625
22.94,1683446099.28125
15.55,1683446099.296875
8.34,1683446099.3125
3.12,1683446099.328125
1.01,1683446099.34375
2.14,1683446099.359375
5.74,1683446099.375
10.42,1683446099.390625
14.71,1683446099.40625
17.51,1683446099.421875
18.30,1683446099.4375
17.12,1683446099.453125
14.35,1683446099.46875
10.48,1683446099.484375
5.90,1683446099.5
0.90,1683446099.515625
-4.18,1683446099.53125
-8.99,1683446099.546875
-13.07,1683446099.5625
-16.00,1683446099.578125
-17.54,1683446099.59375
-17.81,1683446099.609375
-17.25,1683446099.625
-16.52,1683446099.640625
-16.24,1683446099.65625
-16.78,1683446099.671875
-18.06,1683446099.6875
-19.64,1683446099.703125
-20.97,1683446099.71875
-21.66,1683446099.734375
-21.69,1683446099.75
-21.30,1683446099.765625
-20.81,1683446099.78125
-20.27,1683446099.796875
-19.40,1683446099.8125
-17.77,1683446099.828125
-15.02,1683446099.84375
-11.21,1683446099.859375
-6.78,1683446099.875
-2.42,1683446099.890625
1.34,1683446099.90625
4.32,1683446099.921875
6.66,1683446099.9375
8.64,1683446099.953125
10.35,1683446099.96875
11.62,1683446099.984375
12.15,1683446100.0
11.76,1683446100.015625
10.69,1683446100.03125
9.49,1683446100.046875
8.87,1683446100.0625
9.34,1683446100.078125
10.92,1683446100.09375
13.16,1683446100.109375
15.28,1683446100.125
16.49,1683446100.140625
16.32,1683446100.15625
14.74,1683446100.171875
12.19,1683446100.1875
9.35,1683446100.203125
6.97,1683446100.21875
5.54,1683446100.234375
5.17,1683446100.25
5.53,1683446100.265625
5.92,1683446100.28125
5.54,1683446100.296875
3.77,1683446100.3125
0.42,1683446100.328125
-4.07,1683446100.34375
-8.76,1683446100.359375
-12.44,1683446100.375
-14.04,1683446100.390625
-12.99,1683446100.40625
-9.36,1683446100.421875
-3.75,1683446100.4375
2.99,1683446100.453125
10.01,1683446100.46875
16.67,1683446100.484375
22.47,1683446100.5
27.00,1683446100.515625
29.85,1683446100.53125
30.72,1683446100.546875
29.57,1683446100.5625
26.76,1683446100.578125
23.05,1683446100.59375
19.39,1683446100.609375
16.60,1683446100.625
15.12,1683446100.640625
14.89,1683446100.65625
15.47,1683446100.671875
16.28,1683446100.6875
16.85,1683446100.703125
16.92,1683446100.71875
16.45,1683446100.734375
15.55,1683446100.75
14.33,1683446100.765625
12.88,1683446100.78125
11.18,1683446100.796875
9.18,1683446100.8125
6.86,1683446100.828125
4.28,1683446100.84375
1.61,1683446100.859375
-0.85,1683446100.875
-2.76,1683446100.890625
-3.81,1683446100.90625
-3.82,1683446100.921875
-2.82,1683446100.9375
-1.07,1683446100.953125
1.05,1683446100.96875
3.10,1683446100.984375
4.80,1683446101.0
6.07,1683446101.015625
7.08,1683446101.03125
8.20,1683446101.046875
9.87,1683446101.0625
12.53,1683446101.078125
16.55,1683446101.09375
22.15,1683446101.109375
29.35,1683446101.125
37.84,1683446101.140625
46.94,1683446101.15625
55.63,1683446101.171875
62.79,1683446101.1875
67.55,1683446101.203125
69.60,1683446101.21875
69.28,1683446101.234375
67.57,1683446101.25
65.72,1683446101.265625
64.95,1683446101.28125
66.20,1683446101.296875
69.97,1683446101.3125
76.28,1683446101.328125
84.71,1683446101.34375
94.54,1683446101.359375
104.74,1683446101.375
114.20,1683446101.390625
121.82,1683446101.40625
126.63,1683446101.421875
127.82,1683446101.4375
124.60,1683446101.453125
116.35,1683446101.46875
102.67,1683446101.484375
83.69,1683446101.5
60.30,1683446101.515625
34.05,1683446101.53125
6.92,1683446101.546875
-19.18,1683446101.5625
-42.65,1683446101.578125
-62.36,1683446101.59375
-77.44,1683446101.609375
-87.21,1683446101.625
-91.25,1683446101.640625
-89.64,1683446101.65625
-83.21,1683446101.671875
-73.48,1683446101.6875
-62.32,1683446101.703125
-51.35,1683446101.71875
-41.53,1683446101.734375
-33.13,1683446101.75
-25.97,1683446101.765625
-20.03,1683446101.78125
-15.72,1683446101.796875
-13.90,1683446101.8125
-15.52,1683446101.828125
-21.04,1683446101.84375
-30.09,1683446101.859375
-41.37,1683446101.875
-52.93,1683446101.890625
-62.73,1683446101.90625
-69.18,1683446101.921875
-71.47,1683446101.9375
-69.52,1683446101.953125
-63.61,1683446101.96875
-54.12,1683446101.984375
-41.46,1683446102.0
-26.42,1683446102.015625
-10.38,1683446102.03125
4.53,1683446102.046875
15.91,1683446102.0625
21.94,1683446102.078125
22.03,1683446102.09375
17.09,1683446102.109375
9.05,1683446102.125
-0.08,1683446102.140625
-8.96,1683446102.15625
-17.33,1683446102.171875
-25.63,1683446102.1875
-34.40,1683446102.203125
-43.69,1683446102.21875
-52.91,1683446102.234375
-61.10,1683446102.25
-67.41,1683446102.265625
-71.47,1683446102.28125
-73.42,1683446102.296875
-73.74,1683446102.3125
-72.94,1683446102.328125
-71.35,1683446102.34375
-68.92,1683446102.359375
-65.35,1683446102.375
-60.23,1683446102.390625
-53.39,1683446102.40625
-45.09,1683446102.421875
-36.17,1683446102.4375
-27.83,1683446102.453125
-21.31,1683446102.46875
-17.47,1683446102.484375
-16.53,1683446102.5
-18.15,1683446102.515625
-21.61,1683446102.53125
-26.11,1683446102.546875
-30.95,1683446102.5625
-35.56,1683446102.578125
-39.35,1683446102.59375
-41.72,1683446102.609375
-42.07,1683446102.625
-39.96,1683446102.640625
-35.23,1683446102.65625
-28.09,1683446102.671875
-19.01,1683446102.6875
-8.70,1683446102.703125
2.08,1683446102.71875
12.53,1683446102.734375
21.91,1683446102.75
29.56,1683446102.765625
34.99,1683446102.78125
37.88,1683446102.796875
38.06,1683446102.8125
35.47,1683446102.828125
30.16,1683446102.84375
22.44,1683446102.859375
12.89,1683446102.875
2.44,1683446102.890625
-7.64,1683446102.90625
-15.98,1683446102.921875
-21.38,1683446102.9375
-23.13,1683446102.953125
-21.18,1683446102.96875
-16.10,1683446102.984375
-8.90,1683446103.0
-0.76,1683446103.015625
7.15,1683446103.03125
13.75,1683446103.046875
18.08,1683446103.0625
19.40,1683446103.078125
17.30,1683446103.09375
11.95,1683446103.109375
4.12,1683446103.125
-4.97,1683446103.140625
-13.98,1683446103.15625
-21.79,1683446103.171875
-27.69,1683446103.1875
-31.43,1683446103.203125
-32.98,1683446103.21875
-32.46,1683446103.234375
-29.99,1683446103.25
-25.82,1683446103.265625
-20.43,1683446103.28125
-14.47,1683446103.296875
-8.74,1683446103.3125
-3.93,1683446103.328125
-0.46,1683446103.34375
1.57,1683446103.359375
2.41,1683446103.375
2.43,1683446103.390625
1.99,1683446103.40625
1.26,1683446103.421875
0.17,1683446103.4375
-1.54,1683446103.453125
-4.11,1683446103.46875
-7.55,1683446103.484375
-11.42,1683446103.5
-14.87,1683446103.515625
-16.78,1683446103.53125
-16.05,1683446103.546875
-12.08,1683446103.5625
-5.01,1683446103.578125
4.18,1683446103.59375
13.89,1683446103.609375
22.39,1683446103.625
28.46,1683446103.640625
31.65,1683446103.65625
32.38,1683446103.671875
31.46,1683446103.6875
29.61,1683446103.703125
27.04,1683446103.71875
23.52,1683446103.734375
18.69,1683446103.75
12.56,1683446103.765625
5.78,1683446103.78125
-0.44,1683446103.796875
-4.90,1683446103.8125
-6.88,1683446103.828125
-6.53,1683446103.84375
-4.73,1683446103.859375
-2.69,1683446103.875
-1.35,1683446103.890625
-1.05,1683446103.90625
-1.43,1683446103.921875
-1.72,1683446103.9375
-1.18,1683446103.953125
0.47,1683446103.96875
2.90,1683446103.984375
5.23,1683446104.0
6.36,1683446104.015625
5.44,1683446104.03125
2.13,1683446104.046875
-3.24,1683446104.0625
-9.76,1683446104.078125
-16.18,1683446104.09375
-21.29,1683446104.109375
-24.20,1683446104.125
-24.52,1683446104.140625
-22.48,1683446104.15625
-18.80,1683446104.171875
-14.39,1683446104.1875
-9.94,1683446104.203125
-5.53,1683446104.21875
-0.27,1683446104.234375
7.42,1683446104.25
19.07,1683446104.265625
34.92,1683446104.28125
52.91,1683446104.296875
68.19,1683446104.3125
73.97,1683446104.328125
63.47,1683446104.34375
32.80,1683446104.359375
-16.56,1683446104.375
-76.97,1683446104.390625
-136.17,1683446104.40625
-180.69,1683446104.421875
-200.05,1683446104.4375
-189.59,1683446104.453125
-151.47,1683446104.46875
-93.31,1683446104.484375
-25.56,1683446104.5
41.19,1683446104.515625
98.08,1683446104.53125
138.96,1683446104.546875
160.55,1683446104.5625
162.36,1683446104.578125
146.50,1683446104.59375
117.29,1683446104.609375
80.51,1683446104.625
42.27,1683446104.640625
7.81,1683446104.65625
-19.45,1683446104.671875
-38.21,1683446104.6875
-49.08,1683446104.703125
-53.96,1683446104.71875
-55.18,1683446104.734375
-54.61,1683446104.75
-53.08,1683446104.765625
-50.25,1683446104.78125
-45.00,1683446104.796875
-36.22,1683446104.8125
-23.38,1683446104.828125
-6.97,1683446104.84375
11.61,1683446104.859375
30.47,1683446104.875
47.69,1683446104.890625
61.75,1683446104.90625
71.92,1683446104.921875
78.29,1683446104.9375
81.70,1683446104.953125
83.36,1683446104.96875
84.41,1683446104.984375
85.59,1683446105.0
87.14,1683446105.015625
89.05,1683446105.03125
91.34,1683446105.046875
94.15,1683446105.0625
97.99,1683446105.078125
103.64,1683446105.09375
111.81,1683446105.109375
122.69,1683446105.125
135.82,1683446105.140625
150.13,1683446105.15625
163.93,1683446105.171875
174.98,1683446105.1875
180.33,1683446105.203125
177.00,1683446105.21875
162.89,1683446105.234375
137.57,1683446105.25
102.64,1683446105.265625
61.61,1683446105.28125
19.27,1683446105.296875
-19.40,1683446105.3125
-50.20,1683446105.328125
-70.97,1683446105.34375
-81.05,1683446105.359375
-80.68,1683446105.375
-70.66,1683446105.390625
-52.37,1683446105.40625
-27.94,1683446105.421875
-0.11,1683446105.4375
27.86,1683446105.453125
52.61,1683446105.46875
69.58,1683446105.484375
75.68,1683446105.5
70.51,1683446105.515625
56.36,1683446105.53125
36.68,1683446105.546875
14.64,1683446105.5625
-7.40,1683446105.578125
-28.15,1683446105.59375
-46.98,1683446105.609375
-66.85,1683446105.625
-89.57,1683446105.640625
-113.87,1683446105.65625
-135.97,1683446105.671875
-152.43,1683446105.6875
-162.01,1683446105.703125
-165.52,1683446105.71875
-164.91,1683446105.734375
-161.61,1683446105.75
-161.46,1683446105.765625
-167.49,1683446105.78125
-177.87,1683446105.796875
-187.32,1683446105.8125
-191.61,1683446105.828125
-190.09,1683446105.84375
-184.96,1683446105.859375
-179.71,1683446105.875
-176.70,1683446105.890625
-183.82,1683446105.90625
-205.23,1683446105.921875
-238.45,1683446105.9375
-276.05,1683446105.953125
-311.23,1683446105.96875
-341.07,1683446105.984375
-365.73,1683446106.0
-387.14,1683446106.015625
-366.59,1683446106.03125
-285.03,1683446106.046875
-155.10,1683446106.0625
-12.95,1683446106.078125
111.18,1683446106.09375
206.13,1683446106.109375
273.67,1683446106.125
320.10,1683446106.140625
347.56,1683446106.15625
363.87,1683446106.171875
366.89,1683446106.1875
354.83,1683446106.203125
330.61,1683446106.21875
300.99,1683446106.234375
271.48,1683446106.25
242.80,1683446106.265625
216.59,1683446106.28125
191.23,1683446106.296875
165.53,1683446106.3125
133.48,1683446106.328125
91.99,1683446106.34375
43.11,1683446106.359375
-7.21,1683446106.375
-53.69,1683446106.390625
-94.23,1683446106.40625
-129.45,1683446106.421875
-162.06,1683446106.4375
-194.67,1683446106.453125
-233.71,1683446106.46875
-283.98,1683446106.484375
-345.98,1683446106.5
-415.03,1683446106.515625
-482.82,1683446106.53125
-539.48,1683446106.546875
-575.58,1683446106.5625
-585.33,1683446106.578125
-567.77,1683446106.59375
-529.57,1683446106.609375
-480.55,1683446106.625
-429.63,1683446106.640625
-382.02,1683446106.65625
-339.04,1683446106.671875
-299.55,1683446106.6875
-261.57,1683446106.703125
-224.20,1683446106.71875
-187.43,1683446106.734375
-152.66,1683446106.75
-121.01,1683446106.765625
-92.52,1683446106.78125
-66.40,1683446106.796875
-41.90,1683446106.8125
-18.72,1683446106.828125
3.08,1683446106.84375
23.10,1683446106.859375
41.32,1683446106.875
57.92,1683446106.890625
73.26,1683446106.90625
87.68,1683446106.921875
101.43,1683446106.9375
114.68,1683446106.953125
127.66,1683446106.96875
140.81,1683446106.984375
154.77,1683446107.0
170.60,1683446107.015625
189.78,1683446107.03125
213.84,1683446107.046875
243.44,1683446107.0625
276.99,1683446107.078125
309.88,1683446107.09375
335.01,1683446107.109375
345.05,1683446107.125
335.62,1683446107.140625
307.84,1683446107.15625
268.57,1683446107.171875
227.85,1683446107.1875
194.98,1683446107.203125
174.97,1683446107.21875
167.48,1683446107.234375
168.51,1683446107.25
173.56,1683446107.265625
180.11,1683446107.28125
188.25,1683446107.296875
199.28,1683446107.3125
213.70,1683446107.328125
230.14,1683446107.34375
245.64,1683446107.359375
257.01,1683446107.375
261.97,1683446107.390625
259.32,1683446107.40625
248.40,1683446107.421875
228.54,1683446107.4375
199.06,1683446107.453125
160.34,1683446107.46875
114.77,1683446107.484375
66.96,1683446107.5
22.66,1683446107.515625
-13.24,1683446107.53125
-38.29,1683446107.546875
-52.92,1683446107.5625
-59.49,1683446107.578125
-60.62,1683446107.59375
-58.12,1683446107.609375
-52.89,1683446107.625
-45.98,1683446107.640625
-39.63,1683446107.65625
-37.29,1683446107.671875
-42.46,1683446107.6875
-56.66,1683446107.703125
-77.98,1683446107.71875
-101.08,1683446107.734375
-118.78,1683446107.75
-124.58,1683446107.765625
-115.03,1683446107.78125
-90.65,1683446107.796875
-55.45,1683446107.8125
-15.25,1683446107.828125
24.26,1683446107.84375
58.78,1683446107.859375
85.81,1683446107.875
104.17,1683446107.890625
113.35,1683446107.90625
113.17,1683446107.921875
103.99,1683446107.9375
87.41,1683446107.953125
66.62,1683446107.96875
46.17,1683446107.984375
30.89,1683446108.0
24.27,1683446108.015625
27.23,1683446108.03125
37.83,1683446108.046875
52.02,1683446108.0625
65.32,1683446108.078125
74.41,1683446108.09375
78.03,1683446108.109375
76.89,1683446108.125
72.68,1683446108.140625
66.95,1683446108.15625
60.49,1683446108.171875
53.34,1683446108.1875
45.46,1683446108.203125
37.31,1683446108.21875
30.05,1683446108.234375
25.12,1683446108.25
23.55,1683446108.265625
25.39,1683446108.28125
29.63,1683446108.296875
34.70,1683446108.3125
39.03,1683446108.328125
41.60,1683446108.34375
42.06,1683446108.359375
40.54,1683446108.375
37.45,1683446108.390625
33.30,1683446108.40625
28.70,1683446108.421875
24.39,1683446108.4375
21.16,1683446108.453125
19.60,1683446108.46875
19.96,1683446108.484375
22.18,1683446108.5
26.06,1683446108.515625
31.54,1683446108.53125
38.77,1683446108.546875
47.93,1683446108.5625
58.84,1683446108.578125
70.65,1683446108.59375
81.81,1683446108.609375
90.36,1683446108.625
94.43,1683446108.640625
92.78,1683446108.65625
85.08,1683446108.671875
72.04,1683446108.6875
55.25,1683446108.703125
36.98,1683446108.71875
19.80,1683446108.734375
6.11,1683446108.75
-2.23,1683446108.765625
-4.28,1683446108.78125
-0.13,1683446108.796875
9.19,1683446108.8125
21.89,1683446108.828125
35.72,1683446108.84375
48.23,1683446108.859375
57.07,1683446108.875
60.37,1683446108.890625
57.20,1683446108.90625
47.96,1683446108.921875
34.55,1683446108.9375
19.99,1683446108.953125
7.63,1683446108.96875
-0.06,1683446108.984375
-2.46,1683446109.0
-1.14,1683446109.015625
0.58,1683446109.03125
-1.09,1683446109.046875
-8.95,1683446109.0625
-23.76,1683446109.078125
-43.99,1683446109.09375
-66.49,1683446109.109375
-87.66,1683446109.125
-104.47,1683446109.140625
-114.98,1683446109.15625
-118.37,1683446109.171875
-114.61,1683446109.1875
-104.27,1683446109.203125
-88.57,1683446109.21875
-69.51,1683446109.234375
-49.81,1683446109.25
-32.38,1683446109.265625
-19.63,1683446109.28125
-12.76,1683446109.296875
-11.58,1683446109.3125
-14.89,1683446109.328125
-21.17,1683446109.34375
-29.28,1683446109.359375
-38.72,1683446109.375
-49.37,1683446109.390625
-60.88,1683446109.40625
-72.16,1683446109.421875
-81.26,1683446109.4375
-85.89,1683446109.453125
-84.35,1683446109.46875
-76.48,1683446109.484375
-64.06,1683446109.5
-50.42,1683446109.515625
-39.34,1683446109.53125
-33.61,1683446109.546875
-33.99,1683446109.5625
-39.03,1683446109.578125
-45.80,1683446109.59375
-51.31,1683446109.609375
-53.67,1683446109.625
-52.77,1683446109.640625
-49.87,1683446109.65625
-46.71,1683446109.671875
-44.55,1683446109.6875
-43.70,1683446109.703125
-43.61,1683446109.71875
-43.45,1683446109.734375
-42.58,1683446109.75
-40.72,1683446109.765625
-37.80,1683446109.78125
-33.64,1683446109.796875
-27.81,1683446109.8125
-19.84,1683446109.828125
-9.68,1683446109.84375
2.01,1683446109.859375
13.91,1683446109.875
24.44,1683446109.890625
32.52,1683446109.90625
38.09,1683446109.921875
42.28,1683446109.9375
46.94,1683446109.953125
53.83,1683446109.96875
63.63,1683446109.984375
75.35,1683446110.0
86.35,1683446110.015625
93.21,1683446110.03125
92.98,1683446110.046875
84.46,1683446110.0625
68.83,1683446110.078125
49.31,1683446110.09375
30.01,1683446110.109375
14.41,1683446110.125
4.22,1683446110.140625
-1.04,1683446110.15625
-3.52,1683446110.171875
-5.98,1683446110.1875
-10.69,1683446110.203125
-18.67,1683446110.21875
-29.49,1683446110.234375
-41.74,1683446110.25
-53.64,1683446110.265625
-63.73,1683446110.28125
-71.33,1683446110.296875
-76.45,1683446110.3125
-79.52,1683446110.328125
-80.92,1683446110.34375
-80.71,1683446110.359375
-78.62,1683446110.375
-74.46,1683446110.390625
-68.43,1683446110.40625
-61.40,1683446110.421875
-54.67,1683446110.4375
-49.59,1683446110.453125
-46.97,1683446110.46875
-46.85,1683446110.484375
-48.49,1683446110.5
-50.66,1683446110.515625
-51.91,1683446110.53125
-50.88,1683446110.546875
-46.49,1683446110.5625
-38.20,1683446110.578125
-26.18,1683446110.59375
-11.42,1683446110.609375
4.47,1683446110.625
19.71,1683446110.640625
32.80,1683446110.65625
42.82,1683446110.671875
49.42,1683446110.6875
52.52,1683446110.703125
52.10,1683446110.71875
48.12,1683446110.734375
40.77,1683446110.75
30.88,1683446110.765625
20.03,1683446110.78125
10.18,1683446110.796875
3.05,1683446110.8125
-0.55,1683446110.828125
-0.98,1683446110.84375
0.52,1683446110.859375
2.52,1683446110.875
4.10,1683446110.890625
5.14,1683446110.90625
6.11,1683446110.921875
7.52,1683446110.9375
9.25,1683446110.953125
10.23,1683446110.96875
8.70,1683446110.984375
2.92,1683446111.0
-8.00,1683446111.015625
-23.39,1683446111.03125
-41.03,1683446111.046875
-57.76,1683446111.0625
-70.50,1683446111.078125
-77.25,1683446111.09375
-77.66,1683446111.109375
-72.98,1683446111.125
-65.51,1683446111.140625
-57.68,1683446111.15625
-51.44,1683446111.171875
-47.72,1683446111.1875
-46.31,1683446111.203125
-45.94,1683446111.21875
-44.45,1683446111.234375
-39.09,1683446111.25
-27.06,1683446111.265625
-6.30,1683446111.28125
23.71,1683446111.296875
61.16,1683446111.3125
101.83,1683446111.328125
139.62,1683446111.34375
167.81,1683446111.359375
180.83,1683446111.375
175.77,1683446111.390625
153.42,1683446111.40625
118.33,1683446111.421875
77.90,1683446111.4375
40.84,1683446111.453125
15.18,1683446111.46875
6.51,1683446111.484375
16.50,1683446111.5
42.19,1683446111.515625
76.50,1683446111.53125
109.98,1683446111.546875
133.53,1683446111.5625
141.25,1683446111.578125
132.33,1683446111.59375
110.95,1683446111.609375
84.17,1683446111.625
58.90,1683446111.640625
39.30,1683446111.65625
25.96,1683446111.671875
16.86,1683446111.6875
9.45,1683446111.703125
2.42,1683446111.71875
-3.73,1683446111.734375
-7.47,1683446111.75
-7.41,1683446111.765625
-3.31,1683446111.78125
3.75,1683446111.796875
11.72,1683446111.8125
18.13,1683446111.828125
20.52,1683446111.84375
16.80,1683446111.859375
5.90,1683446111.875
-11.58,1683446111.890625
-32.92,1683446111.90625
-53.49,1683446111.921875
-68.00,1683446111.9375
-72.35,1683446111.953125
-65.16,1683446111.96875
-48.25,1683446111.984375
-25.90,1683446112.0
-3.07,1683446112.015625
16.15,1683446112.03125
29.50,1683446112.046875
36.42,1683446112.0625
37.25,1683446112.078125
32.59,1683446112.09375
23.08,1683446112.109375
9.71,1683446112.125
-5.66,1683446112.140625
-20.30,1683446112.15625
-31.25,1683446112.171875
-36.29,1683446112.1875
-34.87,1683446112.203125
-28.24,1683446112.21875
-18.89,1683446112.234375
-9.55,1683446112.25
-2.40,1683446112.265625
1.23,1683446112.28125
0.56,1683446112.296875
-4.93,1683446112.3125
-15.46,1683446112.328125
-30.45,1683446112.34375
-47.72,1683446112.359375
-63.40,1683446112.375
-72.69,1683446112.390625
-71.63,1683446112.40625
-59.02,1683446112.421875
-37.42,1683446112.4375
-12.78,1683446112.453125
7.52,1683446112.46875
17.23,1683446112.484375
13.27,1683446112.5
-3.44,1683446112.515625
-28.77,1683446112.53125
-56.89,1683446112.546875
-81.98,1683446112.5625
-99.50,1683446112.578125
-106.76,1683446112.59375
-103.10,1683446112.609375
-89.85,1683446112.625
-69.92,1683446112.640625
-47.17,1683446112.65625
-25.28,1683446112.671875
-6.82,1683446112.6875
7.29,1683446112.703125
17.49,1683446112.71875
24.71,1683446112.734375
29.35,1683446112.75
30.91,1683446112.765625
28.45,1683446112.78125
21.55,1683446112.796875
11.23,1683446112.8125
-0.04,1683446112.828125
-9.18,1683446112.84375
-13.84,1683446112.859375
-13.40,1683446112.875
-9.29,1683446112.890625
-4.17,1683446112.90625
-0.75,1683446112.921875
-0.67,1683446112.9375
-4.04,1683446112.953125
-9.78,1683446112.96875
-16.34,1683446112.984375
-22.49,1683446113.0
-27.52,1683446113.015625
-31.16,1683446113.03125
-33.19,1683446113.046875
-33.36,1683446113.0625
-31.55,1683446113.078125
-28.13,1683446113.09375
-24.21,1683446113.109375
-21.37,1683446113.125
-21.17,1683446113.140625
-24.37,1683446113.15625
-30.58,1683446113.171875
-38.29,1683446113.1875
-45.51,1683446113.203125
-50.42,1683446113.21875
-51.90,1683446113.234375
-49.67,1683446113.25
-44.11,1683446113.265625
-36.03,1683446113.28125
-26.50,1683446113.296875
-16.68,1683446113.3125
-7.65,1683446113.328125
-0.17,1683446113.34375
5.63,1683446113.359375
10.29,1683446113.375
14.72,1683446113.390625
19.47,1683446113.40625
24.02,1683446113.421875
26.48,1683446113.4375
24.09,1683446113.453125
14.44,1683446113.46875
-2.98,1683446113.484375
-25.94,1683446113.5
-49.68,1683446113.515625
-68.42,1683446113.53125
-77.46,1683446113.546875
-74.87,1683446113.5625
-62.09,1683446113.578125
-43.23,1683446113.59375
-23.49,1683446113.609375
-7.41,1683446113.625
2.16,1683446113.640625
4.47,1683446113.65625
0.56,1683446113.671875
-7.19,1683446113.6875
-15.58,1683446113.703125
-21.21,1683446113.71875
-21.22,1683446113.734375
-14.26,1683446113.75
-1.16,1683446113.765625
15.01,1683446113.78125
29.67,1683446113.796875
38.21,1683446113.8125
37.36,1683446113.828125
26.22,1683446113.84375
6.38,1683446113.859375
-18.63,1683446113.875
-44.02,1683446113.890625
-64.64,1683446113.90625
-75.70,1683446113.921875
-73.60,1683446113.9375
-56.80,1683446113.953125
-26.41,1683446113.96875
13.67,1683446113.984375
57.51,1683446114.0
98.38,1683446114.015625
130.38,1683446114.03125
149.46,1683446114.046875
154.00,1683446114.0625
144.67,1683446114.078125
124.00,1683446114.09375
95.88,1683446114.109375
65.15,1683446114.125
37.00,1683446114.140625
16.22,1683446114.15625
6.19,1683446114.171875
8.06,1683446114.1875
20.24,1683446114.203125
38.88,1683446114.21875
58.89,1683446114.234375
75.42,1683446114.25
85.23,1683446114.265625
87.29,1683446114.28125
82.70,1683446114.296875
73.95,1683446114.3125
63.84,1683446114.328125
54.60,1683446114.34375
47.51,1683446114.359375
42.83,1683446114.375
40.06,1683446114.390625
38.19,1683446114.40625
35.94,1683446114.421875
31.91,1683446114.4375
24.89,1683446114.453125
14.21,1683446114.46875
0.11,1683446114.484375
-16.12,1683446114.5
-32.40,1683446114.515625
-46.45,1683446114.53125
-56.45,1683446114.546875
-61.47,1683446114.5625
-61.46,1683446114.578125
-56.98,1683446114.59375
-48.86,1683446114.609375
-38.00,1683446114.625
-25.40,1683446114.640625
-12.23,1683446114.65625
0.19,1683446114.671875
10.66,1683446114.6875
18.33,1683446114.703125
22.90,1683446114.71875
24.47,1683446114.734375
23.31,1683446114.75
19.61,1683446114.765625
13.49,1683446114.78125
5.30,1683446114.796875
-4.15,1683446114.8125
-13.43,1683446114.828125
-20.87,1683446114.84375
-25.08,1683446114.859375
-25.46,1683446114.875
-22.47,1683446114.890625
-17.40,1683446114.90625
-11.84,1683446114.921875
-7.12,1683446114.9375
-3.86,1683446114.953125
-2.05,1683446114.96875
-1.35,1683446114.984375
-1.56,1683446115.0
-2.84,1683446115.015625
-5.64,1683446115.03125
-10.34,1683446115.046875
-16.76,1683446115.0625
-24.06,1683446115.078125
-30.96,1683446115.09375
-36.31,1683446115.109375
-39.64,1683446115.125
-41.41,1683446115.140625
-42.84,1683446115.15625
-45.28,1683446115.171875
-49.59,1683446115.1875
-55.65,1683446115.203125
-62.29,1683446115.21875
-67.54,1683446115.234375
-69.17,1683446115.25
-65.36,1683446115.265625
-55.33,1683446115.28125
-39.75,1683446115.296875
-20.59,1683446115.3125
-0.66,1683446115.328125
17.34,1683446115.34375
31.55,1683446115.359375
41.36,1683446115.375
47.05,1683446115.390625
49.06,1683446115.40625
47.37,1683446115.421875
41.40,1683446115.4375
30.64,1683446115.453125
15.65,1683446115.46875
-1.34,1683446115.484375
-16.70,1683446115.5
-26.61,1683446115.515625
-28.65,1683446115.53125
-22.82,1683446115.546875
-11.69,1683446115.5625
0.84,1683446115.578125
11.12,1683446115.59375
17.30,1683446115.609375
19.78,1683446115.625
20.71,1683446115.640625
22.61,1683446115.65625
27.07,1683446115.671875
33.88,1683446115.6875
41.14,1683446115.703125
46.05,1683446115.71875
46.05,1683446115.734375
39.83,1683446115.75
27.74,1683446115.765625
11.70,1683446115.78125
-5.39,1683446115.796875
-20.58,1683446115.8125
-31.65,1683446115.828125
-37.83,1683446115.84375
-40.04,1683446115.859375
-40.64,1683446115.875
-42.67,1683446115.890625
-48.60,1683446115.90625
-59.21,1683446115.921875
-72.88,1683446115.9375
-85.82,1683446115.953125
-93.18,1683446115.96875
-90.79,1683446115.984375
-76.71,1683446116.0
-52.04,1683446116.015625
-20.68,1683446116.03125
11.72,1683446116.046875
39.27,1683446116.0625
57.17,1683446116.078125
62.76,1683446116.09375
55.95,1683446116.109375
38.98,1683446116.125
15.94,1683446116.140625
-8.35,1683446116.15625
-29.41,1683446116.171875
-44.11,1683446116.1875
-51.08,1683446116.203125
-50.48,1683446116.21875
-43.34,1683446116.234375
-30.91,1683446116.25
-14.53,1683446116.265625
4.19,1683446116.28125
23.14,1683446116.296875
39.66,1683446116.3125
51.19,1683446116.328125
56.03,1683446116.34375
54.18,1683446116.359375
47.66,1683446116.375
39.73,1683446116.390625
33.44,1683446116.40625
30.37,1683446116.421875
30.20,1683446116.4375
31.27,1683446116.453125
31.65,1683446116.46875
30.36,1683446116.484375
27.83,1683446116.5
26.15,1683446116.515625
27.91,1683446116.53125
34.48,1683446116.546875
45.29,1683446116.5625
58.05,1683446116.578125
69.92,1683446116.59375
78.84,1683446116.609375
84.33,1683446116.625
87.50,1683446116.640625
90.87,1683446116.65625
97.18,1683446116.671875
107.53,1683446116.6875
120.99,1683446116.703125
135.26,1683446116.71875
147.45,1683446116.734375
154.40,1683446116.75
152.64,1683446116.765625
138.46,1683446116.78125
109.87,1683446116.796875
68.03,1683446116.8125
17.52,1683446116.828125
-33.70,1683446116.84375
-76.08,1683446116.859375
-101.36,1683446116.875
-105.67,1683446116.890625
-89.43,1683446116.90625
-61.90,1683446116.921875
-35.66,1683446116.9375
-17.72,1683446116.953125
-7.72,1683446116.96875
-1.44,1683446116.984375
4.49,1683446117.0
10.88,1683446117.015625
16.43,1683446117.03125
19.99,1683446117.046875
22.07,1683446117.0625
25.86,1683446117.078125
36.95,1683446117.09375
57.52,1683446117.109375
86.15,1683446117.125
117.55,1683446117.140625
143.79,1683446117.15625
156.50,1683446117.171875
150.29,1683446117.1875
125.00,1683446117.203125
86.68,1683446117.21875
45.24,1683446117.234375
9.83,1683446117.25
-14.39,1683446117.265625
-27.88,1683446117.28125
-32.40,1683446117.296875
-31.78,1683446117.3125
-29.72,1683446117.328125
-28.18,1683446117.34375
-26.98,1683446117.359375
-24.90,1683446117.375
-21.60,1683446117.390625
-17.85,1683446117.40625
-14.93,1683446117.421875
-13.30,1683446117.4375
-12.39,1683446117.453125
-10.46,1683446117.46875
-5.54,1683446117.484375
3.43,1683446117.5
15.66,1683446117.515625
28.43,1683446117.53125
38.26,1683446117.546875
42.38,1683446117.5625
39.96,1683446117.578125
32.16,1683446117.59375
21.72,1683446117.609375
11.95,1683446117.625
5.49,1683446117.640625
3.59,1683446117.65625
5.81,1683446117.671875
10.52,1683446117.6875
15.58,1683446117.703125
19.12,1683446117.71875
19.85,1683446117.734375
17.57,1683446117.75
13.10,1683446117.765625
7.78,1683446117.78125
2.81,1683446117.796875
-1.20,1683446117.8125
-4.43,1683446117.828125
-7.58,1683446117.84375
-11.44,1683446117.859375
-16.57,1683446117.875
-23.05,1683446117.890625
-30.44,1683446117.90625
-38.07,1683446117.921875
-45.22,1683446117.9375
-51.20,1683446117.953125
-55.42,1683446117.96875
-57.43,1683446117.984375
-56.97,1683446118.0
-54.25,1683446118.015625
-49.86,1683446118.03125
-44.75,1683446118.046875
-39.94,1683446118.0625
-36.33,1683446118.078125
-34.44,1683446118.09375
-34.40,1683446118.109375
-35.94,1683446118.125
-38.54,1683446118.140625
-41.56,1683446118.15625
-44.37,1683446118.171875
-46.46,1683446118.1875
-47.57,1683446118.203125
-47.75,1683446118.21875
-47.36,1683446118.234375
-46.94,1683446118.25
-47.03,1683446118.265625
-47.89,1683446118.28125
-49.41,1683446118.296875
-51.15,1683446118.3125
-52.57,1683446118.328125
-53.37,1683446118.34375
-53.61,1683446118.359375
-53.71,1683446118.375
-54.20,1683446118.390625
-55.48,1683446118.40625
-57.72,1683446118.421875
-60.80,1683446118.4375
-64.47,1683446118.453125
-68.35,1683446118.46875
-72.01,1683446118.484375
-74.96,1683446118.5
-76.78,1683446118.515625
-77.35,1683446118.53125
-76.91,1683446118.546875
-76.02,1683446118.5625
-75.21,1683446118.578125
-74.58,1683446118.59375
-73.64,1683446118.609375
-71.43,1683446118.625
-67.06,1683446118.640625
-60.23,1683446118.65625
-51.45,1683446118.671875
-41.89,1683446118.6875
-32.83,1683446118.703125
-25.17,1683446118.71875
-19.17,1683446118.734375
-14.52,1683446118.75
-10.84,1683446118.765625
-7.89,1683446118.78125
-5.74,1683446118.796875
-4.52,1683446118.8125
-4.20,1683446118.828125
-4.47,1683446118.84375
-4.80,1683446118.859375
-4.69,1683446118.875
-3.91,1683446118.890625
-2.58,1683446118.90625
-1.00,1683446118.921875
0.52,1683446118.9375
1.90,1683446118.953125
3.21,1683446118.96875
4.52,1683446118.984375
5.66,1683446119.0
6.09,1683446119.015625
5.02,1683446119.03125
1.71,1683446119.046875
-4.10,1683446119.0625
-12.15,1683446119.078125
-21.68,1683446119.09375
-31.78,1683446119.109375
-41.55,1683446119.125
-50.23,1683446119.140625
-57.05,1683446119.15625
-61.26,1683446119.171875
-62.31,1683446119.1875
-60.18,1683446119.203125
-55.65,1683446119.21875
-50.23,1683446119.234375
-45.56,1683446119.25
-42.76,1683446119.265625
-41.81,1683446119.28125
-41.63,1683446119.296875
-40.63,1683446119.3125
-37.45,1683446119.328125
-31.63,1683446119.34375
-23.58,1683446119.359375
-14.15,1683446119.375
-3.88,1683446119.390625
7.19,1683446119.40625
19.46,1683446119.421875
33.05,1683446119.4375
47.27,1683446119.453125
60.52,1683446119.46875
71.06,1683446119.484375
77.77,1683446119.5
80.80,1683446119.515625
81.52,1683446119.53125
81.46,1683446119.546875
81.18,1683446119.5625
79.58,1683446119.578125
74.36,1683446119.59375
63.59,1683446119.609375
47.16,1683446119.625
27.54,1683446119.640625
8.82,1683446119.65625
-5.03,1683446119.671875
-11.98,1683446119.6875
-12.56,1683446119.703125
-9.18,1683446119.71875
-4.74,1683446119.734375
-1.39,1683446119.75
-0.14,1683446119.765625
-1.31,1683446119.78125
-5.18,1683446119.796875
-12.25,1683446119.8125
-23.05,1683446119.828125
-37.47,1683446119.84375
-54.53,1683446119.859375
-72.42,1683446119.875
-89.12,1683446119.890625
-102.94,1683446119.90625
-112.81,1683446119.921875
-118.16,1683446119.9375
-118.81,1683446119.953125
-115.01,1683446119.96875
-107.41,1683446119.984375
-97.14,1683446120.0
-85.56,1683446120.015625
-73.87,1683446120.03125
-62.84,1683446120.046875
-52.85,1683446120.0625
-44.23,1683446120.078125
-37.55,1683446120.09375
-33.60,1683446120.109375
-33.01,1683446120.125
-35.76,1683446120.140625
-40.92,1683446120.15625
-47.11,1683446120.171875
-53.20,1683446120.1875
-59.05,1683446120.203125
-65.61,1683446120.21875
-74.37,1683446120.234375
-86.35,1683446120.25
-101.30,1683446120.265625
-117.51,1683446120.28125
-132.40,1683446120.296875
-143.51,1683446120.3125
-149.35,1683446120.328125
-149.74,1683446120.34375
-145.65,1683446120.359375
-138.61,1683446120.375
-130.18,1683446120.390625
-121.48,1683446120.40625
-113.08,1683446120.421875
-105.06,1683446120.4375
-97.26,1683446120.453125
-89.50,1683446120.46875
-81.76,1683446120.484375
-74.25,1683446120.5
-67.29,1683446120.515625
-61.14,1683446120.53125
-55.90,1683446120.546875
-51.33,1683446120.5625
-46.88,1683446120.578125
-41.67,1683446120.59375
-34.68,1683446120.609375
-24.95,1683446120.625
-11.95,1683446120.640625
4.21,1683446120.65625
22.70,1683446120.671875
42.15,1683446120.6875
61.13,1683446120.703125
78.57,1683446120.71875
93.97,1683446120.734375
107.27,1683446120.75
118.60,1683446120.765625
127.93,1683446120.78125
135.05,1683446120.796875
139.61,1683446120.8125
141.46,1683446120.828125
140.74,1683446120.84375
137.99,1683446120.859375
133.89,1683446120.875
129.13,1683446120.890625
124.18,1683446120.90625
119.29,1683446120.921875
114.56,1683446120.9375
109.98,1683446120.953125
105.58,1683446120.96875
101.39,1683446120.984375
97.37,1683446121.0
93.39,1683446121.015625
89.16,1683446121.03125
84.31,1683446121.046875
78.49,1683446121.0625
71.60,1683446121.078125
63.79,1683446121.09375
55.46,1683446121.109375
47.09,1683446121.125
39.02,1683446121.140625
31.26,1683446121.15625
23.48,1683446121.171875
15.11,1683446121.1875
5.62,1683446121.203125
-5.23,1683446121.21875
-17.13,1683446121.234375
-29.20,1683446121.25
-40.08,1683446121.265625
-48.19,1683446121.28125
-52.15,1683446121.296875
-51.16,1683446121.3125
-45.18,1683446121.328125
-35.01,1683446121.34375
-22.01,1683446121.359375
-7.82,1683446121.375
6.06,1683446121.390625
18.48,1683446121.40625
28.74,1683446121.421875
36.53,1683446121.4375
41.78,1683446121.453125
44.55,1683446121.46875
45.01,1683446121.484375
43.40,1683446121.5
40.02,1683446121.515625
35.33,1683446121.53125
29.77,1683446121.546875
23.79,1683446121.5625
17.77,1683446121.578125
12.07,1683446121.59375
6.92,1683446121.609375
2.46,1683446121.625
-1.42,1683446121.640625
-5.05,1683446121.65625
-8.92,1683446121.671875
-13.45,1683446121.6875
-18.64,1683446121.703125
-23.95,1683446121.71875
-28.29,1683446121.734375
-30.50,1683446121.75
-29.83,1683446121.765625
-26.46,1683446121.78125
-21.59,1683446121.796875
-17.16,1683446121.8125
-15.24,1683446121.828125
-17.41,1683446121.84375
-24.35,1683446121.859375
-35.71,1683446121.875
-50.34,1683446121.890625
-66.48,1683446121.90625
-82.11,1683446121.921875
-95.21,1683446121.9375
-104.12,1683446121.953125
-107.77,1683446121.96875
-105.94,1683446121.984375
-99.22,1683446122.0
-88.67,1683446122.015625
-75.25,1683446122.03125
-59.44,1683446122.046875
-41.30,1683446122.0625
-20.94,1683446122.078125
0.85,1683446122.09375
22.36,1683446122.109375
41.29,1683446122.125
55.51,1683446122.140625
63.87,1683446122.15625
66.52,1683446122.171875
64.65,1683446122.1875
59.76,1683446122.203125
53.14,1683446122.21875
45.64,1683446122.234375
37.71,1683446122.25
29.66,1683446122.265625
21.79,1683446122.28125
14.45,1683446122.296875
8.36,1683446122.3125
4.89,1683446122.328125
6.28,1683446122.34375
15.06,1683446122.359375
32.96,1683446122.375
59.47,1683446122.390625
91.24,1683446122.40625
122.87,1683446122.421875
148.77,1683446122.4375
165.33,1683446122.453125
172.03,1683446122.46875
171.03,1683446122.484375
165.59,1683446122.5
158.23,1683446122.515625
149.91,1683446122.53125
140.38,1683446122.546875
129.34,1683446122.5625
117.43,1683446122.578125
106.34,1683446122.59375
98.17,1683446122.609375
94.44,1683446122.625
95.34,1683446122.640625
99.82,1683446122.65625
106.09,1683446122.671875
112.35,1683446122.6875
117.31,1683446122.703125
120.21,1683446122.71875
120.78,1683446122.734375
118.93,1683446122.75
114.73,1683446122.765625
108.28,1683446122.78125
99.62,1683446122.796875
88.70,1683446122.8125
75.43,1683446122.828125
59.90,1683446122.84375
42.69,1683446122.859375
25.08,1683446122.875
8.90,1683446122.890625
-4.04,1683446122.90625
-12.64,1683446122.921875
-16.94,1683446122.9375
-18.11,1683446122.953125
-17.86,1683446122.96875
-17.67,1683446122.984375
-18.28,1683446123.0
-19.59,1683446123.015625
-21.02,1683446123.03125
-22.12,1683446123.046875
-22.91,1683446123.0625
-23.83,1683446123.078125
-25.48,1683446123.09375
-28.15,1683446123.109375
-31.65,1683446123.125
-35.35,1683446123.140625
-38.50,1683446123.15625
-40.62,1683446123.171875
-41.75,1683446123.1875
-42.45,1683446123.203125
-43.55,1683446123.21875
-45.73,1683446123.234375
-49.18,1683446123.25
-53.40,1683446123.265625
-57.33,1683446123.28125
-59.69,1683446123.296875
-59.31,1683446123.3125
-55.51,1683446123.328125
-48.22,1683446123.34375
-38.02,1683446123.359375
-25.93,1683446123.375
-13.14,1683446123.390625
-0.84,1683446123.40625
10.09,1683446123.421875
19.11,1683446123.4375
26.05,1683446123.453125
31.04,1683446123.46875
34.42,1683446123.484375
36.52,1683446123.5
37.61,1683446123.515625
37.82,1683446123.53125
37.09,1683446123.546875
35.36,1683446123.5625
32.63,1683446123.578125
29.12,1683446123.59375
25.21,1683446123.609375
21.40,1683446123.625
18.14,1683446123.640625
15.78,1683446123.65625
14.47,1683446123.671875
14.24,1683446123.6875
15.01,1683446123.703125
16.52,1683446123.71875
18.35,1683446123.734375
19.99,1683446123.75
20.89,1683446123.765625
20.70,1683446123.78125
19.33,1683446123.796875
16.97,1683446123.8125
14.02,1683446123.828125
10.91,1683446123.84375
8.02,1683446123.859375
5.53,1683446123.875
3.50,1683446123.890625
1.77,1683446123.90625
0.09,1683446123.921875
-1.81,1683446123.9375
-4.10,1683446123.953125
-6.66,1683446123.96875
-9.05,1683446123.984375
-10.63,1683446124.0
-10.71,1683446124.015625
-8.87,1683446124.03125
-5.18,1683446124.046875
-0.14,1683446124.0625
5.44,1683446124.078125
10.78,1683446124.09375
15.31,1683446124.109375
18.77,1683446124.125
21.14,1683446124.140625
22.49,1683446124.15625
22.88,1683446124.171875
22.37,1683446124.1875
21.06,1683446124.203125
19.21,1683446124.21875
17.13,1683446124.234375
15.13,1683446124.25
13.40,1683446124.265625
11.93,1683446124.28125
10.62,1683446124.296875
9.34,1683446124.3125
8.07,1683446124.328125
6.88,1683446124.34375
5.92,1683446124.359375
5.30,1683446124.375
5.14,1683446124.390625
5.45,1683446124.40625
6.19,1683446124.421875
7.24,1683446124.4375
8.32,1683446124.453125
9.10,1683446124.46875
9.19,1683446124.484375
8.37,1683446124.5
6.62,1683446124.515625
4.19,1683446124.53125
1.44,1683446124.546875
-1.34,1683446124.5625
-4.10,1683446124.578125
-7.07,1683446124.59375
-10.58,1683446124.609375
-14.80,1683446124.625
-19.51,1683446124.640625
-24.07,1683446124.65625
-27.59,1683446124.671875
-29.21,1683446124.6875
-28.39,1683446124.703125
-25.11,1683446124.71875
-19.81,1683446124.734375
-13.22,1683446124.75
-6.06,1683446124.765625
1.12,1683446124.78125
8.04,1683446124.796875
14.62,1683446124.8125
20.82,1683446124.828125
26.57,1683446124.84375
31.71,1683446124.859375
36.02,1683446124.875
39.41,1683446124.890625
41.97,1683446124.90625
44.01,1683446124.921875
45.93,1683446124.9375
48.12,1683446124.953125
50.82,1683446124.96875
54.13,1683446124.984375
58.00,1683446125.0
62.40,1683446125.015625
67.32,1683446125.03125
72.78,1683446125.046875
78.88,1683446125.0625
85.75,1683446125.078125
93.50,1683446125.09375
102.22,1683446125.109375
111.89,1683446125.125
122.36,1683446125.140625
133.46,1683446125.15625
145.06,1683446125.171875
157.30,1683446125.1875
170.68,1683446125.203125
185.89,1683446125.21875
203.46,1683446125.234375
223.34,1683446125.25
244.63,1683446125.265625
265.58,1683446125.28125
284.04,1683446125.296875
297.96,1683446125.3125
305.87,1683446125.328125
307.12,1683446125.34375
301.84,1683446125.359375
290.70,1683446125.375
274.71,1683446125.390625
254.98,1683446125.40625
232.71,1683446125.421875
209.11,1683446125.4375
185.24,1683446125.453125
161.90,1683446125.46875
139.38,1683446125.484375
117.42,1683446125.5
95.34,1683446125.515625
72.35,1683446125.53125
48.01,1683446125.546875
22.43,1683446125.5625
-3.64,1683446125.578125
-29.07,1683446125.59375
-52.77,1683446125.609375
-73.96,1683446125.625
-92.35,1683446125.640625
-108.04,1683446125.65625
-121.27,1683446125.671875
-132.24,1683446125.6875
-140.93,1683446125.703125
-147.22,1683446125.71875
-150.99,1683446125.734375
-152.22,1683446125.75
-151.02,1683446125.765625
-147.44,1683446125.78125
-141.38,1683446125.796875
-132.56,1683446125.8125
-120.78,1683446125.828125
-106.32,1683446125.84375
-90.30,1683446125.859375
-74.54,1683446125.875
-61.05,1683446125.890625
-51.42,1683446125.90625
-46.36,1683446125.921875
-45.79,1683446125.9375
-49.66,1683446125.953125
-58.55,1683446125.96875
-73.77,1683446125.984375
-96.62,1683446126.0
-127.19,1683446126.015625
-163.43,1683446126.03125
-201.41,1683446126.046875
-236.47,1683446126.0625
-264.88,1683446126.078125
-284.88,1683446126.09375
-296.74,1683446126.109375
-301.93,1683446126.125
-301.94,1683446126.140625
-297.80,1683446126.15625
-290.20,1683446126.171875
-280.14,1683446126.1875
-269.28,1683446126.203125
-259.75,1683446126.21875
-253.44,1683446126.234375
-251.10,1683446126.25
-251.91,1683446126.265625
-253.75,1683446126.28125
-254.09,1683446126.296875
-250.93,1683446126.3125
-243.46,1683446126.328125
-232.13,1683446126.34375
-218.20,1683446126.359375
-203.04,1683446126.375
-187.64,1683446126.390625
-172.40,1683446126.40625
-157.42,1683446126.421875
-142.75,1683446126.4375
-128.72,1683446126.453125
-115.88,1683446126.46875
-104.85,1683446126.484375
-96.06,1683446126.5
-89.67,1683446126.515625
-85.55,1683446126.53125
-83.41,1683446126.546875
-82.84,1683446126.5625
-83.23,1683446126.578125
-83.75,1683446126.59375
-83.35,1683446126.609375
-81.03,1683446126.625
-76.16,1683446126.640625
-68.75,1683446126.65625
-59.37,1683446126.671875
-48.96,1683446126.6875
-38.42,1683446126.703125
-28.36,1683446126.71875
-19.05,1683446126.734375
-10.60,1683446126.75
-3.21,1683446126.765625
2.79,1683446126.78125
7.05,1683446126.796875
9.44,1683446126.8125
10.32,1683446126.828125
10.46,1683446126.84375
10.83,1683446126.859375
12.26,1683446126.875
15.09,1683446126.890625
19.10,1683446126.90625
23.64,1683446126.921875
27.84,1683446126.9375
30.95,1683446126.953125
32.50,1683446126.96875
32.40,1683446126.984375
30.93,1683446127.0
28.58,1683446127.015625
25.95,1683446127.03125
23.55,1683446127.046875
21.71,1683446127.0625
20.52,1683446127.078125
19.89,1683446127.09375
19.64,1683446127.109375
19.51,1683446127.125
19.24,1683446127.140625
18.54,1683446127.15625
17.11,1683446127.171875
14.72,1683446127.1875
11.26,1683446127.203125
6.85,1683446127.21875
1.88,1683446127.234375
-3.06,1683446127.25
-7.27,1683446127.265625
-10.08,1683446127.28125
-10.97,1683446127.296875
-9.61,1683446127.3125
-5.93,1683446127.328125
-0.09,1683446127.34375
7.46,1683446127.359375
16.04,1683446127.375
24.80,1683446127.390625
32.82,1683446127.40625
39.28,1683446127.421875
43.57,1683446127.4375
45.45,1683446127.453125
45.05,1683446127.46875
42.90,1683446127.484375
39.76,1683446127.5
36.53,1683446127.515625
33.96,1683446127.53125
32.58,1683446127.546875
32.56,1683446127.5625
33.72,1683446127.578125
35.68,1683446127.59375
37.97,1683446127.609375
40.17,1683446127.625
41.93,1683446127.640625
42.99,1683446127.65625
43.10,1683446127.671875
42.00,1683446127.6875
39.42,1683446127.703125
35.22,1683446127.71875
29.44,1683446127.734375
22.38,1683446127.75
14.59,1683446127.765625
6.79,1683446127.78125
-0.26,1683446127.796875
-5.89,1683446127.8125
-9.69,1683446127.828125
-11.60,1683446127.84375
-11.89,1683446127.859375
-11.09,1683446127.875
-9.76,1683446127.890625
-8.33,1683446127.90625
-6.95,1683446127.921875
-5.48,1683446127.9375
-3.61,1683446127.953125
-1.04,1683446127.96875
2.34,1683446127.984375
6.38,1683446128.0
10.76,1683446128.015625
15.09,1683446128.03125
19.06,1683446128.046875
22.48,1683446128.0625
25.24,1683446128.078125
27.25,1683446128.09375
28.38,1683446128.109375
28.48,1683446128.125
27.49,1683446128.140625
25.53,1683446128.15625
22.97,1683446128.171875
20.38,1683446128.1875
18.43,1683446128.203125
17.66,1683446128.21875
18.40,1683446128.234375
20.61,1683446128.25
23.99,1683446128.265625
27.97,1683446128.28125
31.90,1683446128.296875
35.10,1683446128.3125
36.98,1683446128.328125
37.10,1683446128.34375
35.28,1683446128.359375
31.65,1683446128.375
26.68,1683446128.390625
21.13,1683446128.40625
15.83,1683446128.421875
11.49,1683446128.4375
8.52,1683446128.453125
6.94,1683446128.46875
6.38,1683446128.484375
6.27,1683446128.5
6.05,1683446128.515625
5.31,1683446128.53125
3.93,1683446128.546875
2.11,1683446128.5625
0.29,1683446128.578125
-0.94,1683446128.59375
-0.98,1683446128.609375
0.60,1683446128.625
3.97,1683446128.640625
8.99,1683446128.65625
15.19,1683446128.671875
21.88,1683446128.6875
28.22,1683446128.703125
33.43,1683446128.71875
36.88,1683446128.734375
38.32,1683446128.75
37.87,1683446128.765625
36.10,1683446128.78125
33.84,1683446128.796875
32.02,1683446128.8125
31.34,1683446128.828125
32.08,1683446128.84375
34.01,1683446128.859375
36.49,1683446128.875
38.71,1683446128.890625
40.02,1683446128.90625
40.10,1683446128.921875
39.03,1683446128.9375
37.16,1683446128.953125
34.94,1683446128.96875
32.69,1683446128.984375
30.51,1683446129.0
28.29,1683446129.015625
25.88,1683446129.03125
23.15,1683446129.046875
20.11,1683446129.0625
16.84,1683446129.078125
13.46,1683446129.09375
9.99,1683446129.109375
6.34,1683446129.125
2.37,1683446129.140625
-2.01,1683446129.15625
-6.70,1683446129.171875
-11.29,1683446129.1875
-15.14,1683446129.203125
-17.47,1683446129.21875
-17.67,1683446129.234375
-15.44,1683446129.25
-10.90,1683446129.265625
-4.63,1683446129.28125
2.53,1683446129.296875
9.67,1683446129.3125
16.00,1683446129.328125
20.98,1683446129.34375
24.39,1683446129.359375
26.27,1683446129.375
26.81,1683446129.390625
26.25,1683446129.40625
24.81,1683446129.421875
22.74,1683446129.4375
20.30,1683446129.453125
17.79,1683446129.46875
15.52,1683446129.484375
13.74,1683446129.5
12.63,1683446129.515625
12.23,1683446129.53125
12.52,1683446129.546875
13.35,1683446129.5625
14.58,1683446129.578125
16.05,1683446129.59375
17.59,1683446129.609375
19.06,1683446129.625
20.28,1683446129.640625
21.11,1683446129.65625
21.37,1683446129.671875
20.86,1683446129.6875
19.41,1683446129.703125
16.92,1683446129.71875
13.45,1683446129.734375
9.24,1683446129.75
4.69,1683446129.765625
0.19,1683446129.78125
-3.96,1683446129.796875
-7.57,1683446129.8125
-10.50,1683446129.828125
-12.53,1683446129.84375
-13.32,1683446129.859375
-12.40,1683446129.875
-9.43,1683446129.890625
-4.37,1683446129.90625
2.39,1683446129.921875
10.04,1683446129.9375
17.58,1683446129.953125
24.09,1683446129.96875
29.00,1683446129.984375
32.08,1683446130.0
33.45,1683446130.015625
33.35,1683446130.03125
32.10,1683446130.046875
29.97,1683446130.0625
27.21,1683446130.078125
24.08,1683446130.09375
20.82,1683446130.109375
17.59,1683446130.125
14.49,1683446130.140625
11.54,1683446130.15625
8.74,1683446130.171875
6.20,1683446130.1875
4.11,1683446130.203125
2.76,1683446130.21875
2.38,1683446130.234375
2.92,1683446130.25
4.11,1683446130.265625
5.38,1683446130.28125
6.13,1683446130.296875
5.89,1683446130.3125
4.47,1683446130.328125
1.91,1683446130.34375
-1.53,1683446130.359375
-5.57,1683446130.375
-9.95,1683446130.390625
-14.44,1683446130.40625
-18.83,1683446130.421875
-22.84,1683446130.4375
-26.07,1683446130.453125
-28.11,1683446130.46875
-28.58,1683446130.484375
-27.21,1683446130.5
-23.94,1683446130.515625
-18.91,1683446130.53125
-12.50,1683446130.546875
-5.24,1683446130.5625
2.25,1683446130.578125
9.32,1683446130.59375
15.50,1683446130.609375
20.46,1683446130.625
24.13,1683446130.640625
26.57,1683446130.65625
27.93,1683446130.671875
28.37,1683446130.6875
28.05,1683446130.703125
27.07,1683446130.71875
25.53,1683446130.734375
23.48,1683446130.75
20.96,1683446130.765625
18.01,1683446130.78125
14.68,1683446130.796875
11.15,1683446130.8125
7.70,1683446130.828125
4.68,1683446130.84375
2.39,1683446130.859375
0.97,1683446130.875
0.33,1683446130.890625
0.14,1683446130.90625
-0.09,1683446130.921875
-0.86,1683446130.9375
-2.49,1683446130.953125
-5.07,1683446130.96875
-8.38,1683446130.984375
-12.02,1683446131.0
-15.54,1683446131.015625
-18.67,1683446131.03125
-21.42,1683446131.046875
-24.08,1683446131.0625
-27.03,1683446131.078125
-30.57,1683446131.09375
-34.65,1683446131.109375
-38.82,1683446131.125
-42.32,1683446131.140625
-44.30,1683446131.15625
-44.05,1683446131.171875
-41.20,1683446131.1875
-35.79,1683446131.203125
-28.28,1683446131.21875
-19.42,1683446131.234375
-10.16,1683446131.25
-1.48,1683446131.265625
5.78,1683446131.28125
11.09,1683446131.296875
14.33,1683446131.3125
15.81,1683446131.328125
16.09,1683446131.34375
15.85,1683446131.359375
15.57,1683446131.375
15.42,1683446131.390625
15.30,1683446131.40625
14.96,1683446131.421875
14.22,1683446131.4375
13.16,1683446131.453125
12.07,1683446131.46875
11.33,1683446131.484375
11.17,1683446131.5
11.53,1683446131.515625
12.04,1683446131.53125
12.19,1683446131.546875
11.55,1683446131.5625
9.91,1683446131.578125
7.35,1683446131.59375
4.25,1683446131.609375
1.06,1683446131.625
-1.75,1683446131.640625
-3.90,1683446131.65625
-5.31,1683446131.671875
-6.18,1683446131.6875
-6.88,1683446131.703125
-7.89,1683446131.71875
-9.63,1683446131.734375
-12.33,1683446131.75
-15.96,1683446131.765625
-20.14,1683446131.78125
-24.20,1683446131.796875
-27.28,1683446131.8125
-28.47,1683446131.828125
-27.10,1683446131.84375
-22.87,1683446131.859375
-16.00,1683446131.875
-7.21,1683446131.890625
2.42,1683446131.90625
11.69,1683446131.921875
19.58,1683446131.9375
25.37,1683446131.953125
28.77,1683446131.96875
29.82,1683446131.984375
28.85,1683446132.0
26.31,1683446132.015625
22.75,1683446132.03125
18.71,1683446132.046875
14.74,1683446132.0625
11.34,1683446132.078125
8.89,1683446132.09375
7.53,1683446132.109375
7.15,1683446132.125
7.40,1683446132.140625
7.82,1683446132.15625
8.04,1683446132.171875
7.86,1683446132.1875
7.34,1683446132.203125
6.63,1683446132.21875
5.85,1683446132.234375
4.99,1683446132.25
3.90,1683446132.265625
2.39,1683446132.28125
0.38,1683446132.296875
-2.02,1683446132.3125
-4.59,1683446132.328125
-7.10,1683446132.34375
-9.40,1683446132.359375
-11.48,1683446132.375
-13.40,1683446132.390625
-15.23,1683446132.40625
-17.00,1683446132.421875
-18.72,1683446132.4375
-20.38,1683446132.453125
-21.93,1683446132.46875
-23.28,1683446132.484375
-24.14,1683446132.5
-24.09,1683446132.515625
-22.63,1683446132.53125
-19.42,1683446132.546875
-14.49,1683446132.5625
-8.28,1683446132.578125
-1.61,1683446132.59375
4.62,1683446132.609375
9.73,1683446132.625
13.42,1683446132.640625
15.76,1683446132.65625
17.02,1683446132.671875
17.42,1683446132.6875
17.05,1683446132.703125
15.86,1683446132.71875
13.79,1683446132.734375
10.98,1683446132.75
7.74,1683446132.765625
4.52,1683446132.78125
1.71,1683446132.796875
-0.49,1683446132.8125
-2.14,1683446132.828125
-3.43,1683446132.84375
-4.60,1683446132.859375
-5.72,1683446132.875
-6.74,1683446132.890625
-7.52,1683446132.90625
-8.04,1683446132.921875
-8.44,1683446132.9375
-9.07,1683446132.953125
-10.31,1683446132.96875
-12.34,1683446132.984375
-14.99,1683446133.0
-17.75,1683446133.015625
-19.96,1683446133.03125
-21.08,1683446133.046875
-20.99,1683446133.0625
-20.03,1683446133.078125
-18.85,1683446133.09375
-18.13,1683446133.109375
-18.27,1683446133.125
-19.28,1683446133.140625
-20.77,1683446133.15625
-22.15,1683446133.171875
-22.80,1683446133.1875
-22.14,1683446133.203125
-19.78,1683446133.21875
-15.46,1683446133.234375
-9.22,1683446133.25
-1.46,1683446133.265625
6.99,1683446133.28125
14.95,1683446133.296875
21.22,1683446133.3125
24.95,1683446133.328125
26.04,1683446133.34375
25.11,1683446133.359375
23.31,1683446133.375
21.74,1683446133.390625
21.02,1683446133.40625
21.07,1683446133.421875
21.38,1683446133.4375
21.39,1683446133.453125
20.91,1683446133.46875
20.23,1683446133.484375
19.82,1683446133.5
20.00,1683446133.515625
20.60,1683446133.53125
21.06,1683446133.546875
20.79,1683446133.5625
19.50,1683446133.578125
17.43,1683446133.59375
15.14,1683446133.609375
13.21,1683446133.625
11.83,1683446133.640625
10.72,1683446133.65625
9.25,1683446133.671875
6.76,1683446133.6875
2.83,1683446133.703125
-2.54,1683446133.71875
-8.92,1683446133.734375
-15.58,1683446133.75
-21.64,1683446133.765625
-26.34,1683446133.78125
-29.20,1683446133.796875
-30.15,1683446133.8125
-29.56,1683446133.828125
-28.03,1683446133.84375
-26.25,1683446133.859375
-24.70,1683446133.875
-23.57,1683446133.890625
-22.68,1683446133.90625
-21.69,1683446133.921875
-20.12,1683446133.9375
-17.58,1683446133.953125
-13.86,1683446133.96875
-8.94,1683446133.984375
-3.08,1683446134.0
3.23,1683446134.015625
9.31,1683446134.03125
14.40,1683446134.046875
17.86,1683446134.0625
19.25,1683446134.078125
18.50,1683446134.09375
15.85,1683446134.109375
11.86,1683446134.125
7.19,1683446134.140625
2.56,1683446134.15625
-1.46,1683446134.171875
-4.47,1683446134.1875
-6.36,1683446134.203125
-7.24,1683446134.21875
-7.38,1683446134.234375
-7.12,1683446134.25
-6.75,1683446134.265625
-6.46,1683446134.28125
-6.27,1683446134.296875
-6.08,1683446134.3125
-5.83,1683446134.328125
-5.54,1683446134.34375
-5.39,1683446134.359375
-5.67,1683446134.375
-6.56,1683446134.390625
-8.04,1683446134.40625
-9.75,1683446134.421875
-11.22,1683446134.4375
-11.97,1683446134.453125
-11.81,1683446134.46875
-10.89,1683446134.484375
-9.64,1683446134.5
-8.62,1683446134.515625
-8.31,1683446134.53125
-8.92,1683446134.546875
-10.41,1683446134.5625
-12.37,1683446134.578125
-14.11,1683446134.59375
-14.73,1683446134.609375
-13.33,1683446134.625
-9.30,1683446134.640625
-2.65,1683446134.65625
5.85,1683446134.671875
14.83,1683446134.6875
22.62,1683446134.703125
27.72,1683446134.71875
29.30,1683446134.734375
27.28,1683446134.75
22.32,1683446134.765625
15.58,1683446134.78125
8.33,1683446134.796875
1.73,1683446134.8125
-3.39,1683446134.828125
-6.60,1683446134.84375
-7.85,1683446134.859375
-7.40,1683446134.875
-5.68,1683446134.890625
-3.18,1683446134.90625
-0.32,1683446134.921875
2.63,1683446134.9375
5.50,1683446134.953125
8.20,1683446134.96875
10.53,1683446134.984375
12.16,1683446135.0
12.61,1683446135.015625
11.41,1683446135.03125
8.26,1683446135.046875
3.27,1683446135.0625
-3.04,1683446135.078125
-9.81,1683446135.09375
-16.11,1683446135.109375
-21.16,1683446135.125
-24.51,1683446135.140625
-26.03,1683446135.15625
-25.86,1683446135.171875
-24.29,1683446135.1875
-21.74,1683446135.203125
-18.80,1683446135.21875
-16.11,1683446135.234375
-14.22,1683446135.25
-13.40,1683446135.265625
-13.46,1683446135.28125
-13.71,1683446135.296875
-13.23,1683446135.3125
-11.29,1683446135.328125
-7.57,1683446135.34375
-2.38,1683446135.359375
3.63,1683446135.375
9.70,1683446135.390625
15.31,1683446135.40625
20.21,1683446135.421875
24.42,1683446135.4375
27.97,1683446135.453125
30.74,1683446135.46875
32.47,1683446135.484375
32.86,1683446135.5
31.77,1683446135.515625
29.37,1683446135.53125
26.08,1683446135.546875
22.43,1683446135.5625
18.89,1683446135.578125
15.69,1683446135.59375
12.82,1683446135.609375
10.16,1683446135.625
7.55,1683446135.640625
5.01,1683446135.65625
2.65,1683446135.671875
0.64,1683446135.6875
-0.90,1683446135.703125
-2.00,1683446135.71875
-2.83,1683446135.734375
-3.73,1683446135.75
-5.06,1683446135.765625
-7.10,1683446135.78125
-9.98,1683446135.796875
-13.59,1683446135.8125
-17.63,1683446135.828125
-21.76,1683446135.84375
-25.68,1683446135.859375
-29.31,1683446135.875
-32.66,1683446135.890625
-35.76,1683446135.90625
-38.56,1683446135.921875
-40.81,1683446135.9375
-42.19,1683446135.953125
-42.40,1683446135.96875
-41.26,1683446135.984375
-38.80,1683446136.0
-35.22,1683446136.015625
-30.86,1683446136.03125
-26.15,1683446136.046875
-21.56,1683446136.0625
-17.53,1683446136.078125
-14.42,1683446136.09375
-12.47,1683446136.109375
-11.71,1683446136.125
-11.85,1683446136.140625
-12.10,1683446136.15625
-11.08,1683446136.171875
-7.03,1683446136.1875
1.74,1683446136.203125
16.14,1683446136.21875
35.73,1683446136.234375
58.60,1683446136.25
81.78,1683446136.265625
102.02,1683446136.28125
116.40,1683446136.296875
122.80,1683446136.3125
119.95,1683446136.328125
107.49,1683446136.34375
86.10,1683446136.359375
57.67,1683446136.375
25.37,1683446136.390625
-6.82,1683446136.40625
-34.92,1683446136.421875
-55.99,1683446136.4375
-68.87,1683446136.453125
-74.20,1683446136.46875
-73.92,1683446136.484375
-70.34,1683446136.5
-65.38,1683446136.515625
-60.13,1683446136.53125
-54.93,1683446136.546875
-49.64,1683446136.5625
-44.09,1683446136.578125
-38.40,1683446136.59375
-33.00,1683446136.609375
-28.54,1683446136.625
-25.48,1683446136.640625
-23.80,1683446136.65625
-22.86,1683446136.671875
-21.69,1683446136.6875
-19.40,1683446136.703125
-15.69,1683446136.71875
-10.96,1683446136.734375
-6.08,1683446136.75
-1.94,1683446136.765625
1.09,1683446136.78125
3.28,1683446136.796875
5.32,1683446136.8125
7.86,1683446136.828125
11.07,1683446136.84375
14.49,1683446136.859375
17.21,1683446136.875
18.39,1683446136.890625
17.62,1683446136.90625
15.15,1683446136.921875
11.64,1683446136.9375
7.83,1683446136.953125
4.12,1683446136.96875
0.48,1683446136.984375
-3.30,1683446137.0
-7.29,1683446137.015625
-11.16,1683446137.03125
-14.21,1683446137.046875
-15.76,1683446137.0625
-15.57,1683446137.078125
-14.05,1683446137.09375
-12.08,1683446137.109375
-10.58,1683446137.125
-9.98,1683446137.140625
-10.17,1683446137.15625
-10.71,1683446137.171875
-11.33,1683446137.1875
-12.21,1683446137.203125
-13.96,1683446137.21875
-17.15,1683446137.234375
-21.86,1683446137.25
-27.35,1683446137.265625
-32.23,1683446137.28125
-35.05,1683446137.296875
-34.79,1683446137.3125
-31.25,1683446137.328125
-24.99,1683446137.34375
-16.96,1683446137.359375
-8.07,1683446137.375
1.14,1683446137.390625
10.49,1683446137.40625
19.92,1683446137.421875
29.30,1683446137.4375
38.21,1683446137.453125
45.96,1683446137.46875
51.86,1683446137.484375
55.46,1683446137.5
56.77,1683446137.515625
56.27,1683446137.53125
54.82,1683446137.546875
53.33,1683446137.5625
52.46,1683446137.578125
52.39,1683446137.59375
52.74,1683446137.609375
52.84,1683446137.625
52.02,1683446137.640625
49.99,1683446137.65625
47.03,1683446137.671875
43.83,1683446137.6875
41.22,1683446137.703125
39.66,1683446137.71875
39.00,1683446137.734375
38.35,1683446137.75
36.39,1683446137.765625
31.83,1683446137.78125
23.93,1683446137.796875
12.88,1683446137.8125
-0.05,1683446137.828125
-12.90,1683446137.84375
-23.48,1683446137.859375
-30.00,1683446137.875
-31.60,1683446137.890625
-28.50,1683446137.90625
-21.83,1683446137.921875
-13.21,1683446137.9375
-4.26,1683446137.953125
3.65,1683446137.96875
9.69,1683446137.984375
13.46,1683446138.0
14.95,1683446138.015625
14.36,1683446138.03125
12.06,1683446138.046875
8.45,1683446138.0625
4.02,1683446138.078125
-0.69,1683446138.09375
-5.09,1683446138.109375
-8.58,1683446138.125
-10.68,1683446138.140625
-11.15,1683446138.15625
-10.07,1683446138.171875
-7.79,1683446138.1875
-4.82,1683446138.203125
-1.61,1683446138.21875
1.60,1683446138.234375
4.78,1683446138.25
8.05,1683446138.265625
11.50,1683446138.28125
15.07,1683446138.296875
18.56,1683446138.3125
21.71,1683446138.328125
24.37,1683446138.34375
26.55,1683446138.359375
28.46,1683446138.375
30.37,1683446138.390625
32.42,1683446138.40625
34.46,1683446138.421875
36.02,1683446138.4375
36.52,1683446138.453125
35.57,1683446138.46875
33.14,1683446138.484375
29.67,1683446138.5
25.94,1683446138.515625
22.84,1683446138.53125
21.01,1683446138.546875
20.72,1683446138.5625
21.80,1683446138.578125
23.69,1683446138.59375
25.66,1683446138.609375
26.99,1683446138.625
27.25,1683446138.640625
26.39,1683446138.65625
24.68,1683446138.671875
22.51,1683446138.6875
20.09,1683446138.703125
17.26,1683446138.71875
13.53,1683446138.734375
8.44,1683446138.75
1.83,1683446138.765625
-5.91,1683446138.78125
-14.00,1683446138.796875
-21.48,1683446138.8125
-27.66,1683446138.828125
-32.23,1683446138.84375
-35.31,1683446138.859375
-37.23,1683446138.875
-38.39,1683446138.890625
-39.14,1683446138.90625
-39.81,1683446138.921875
-40.67,1683446138.9375
-41.83,1683446138.953125
-43.13,1683446138.96875
-44.06,1683446138.984375
-43.93,1683446139.0
-42.20,1683446139.015625
-38.88,1683446139.03125
-34.76,1683446139.046875
-31.27,1683446139.0625
-30.04,1683446139.078125
-32.30,1683446139.09375
-38.33,1683446139.109375
-47.39,1683446139.125
-57.95,1683446139.140625
-68.27,1683446139.15625
-76.95,1683446139.171875
-83.29,1683446139.1875
-87.28,1683446139.203125
-89.38,1683446139.21875
-90.15,1683446139.234375
-89.95,1683446139.25
-88.85,1683446139.265625
-86.69,1683446139.28125
-83.31,1683446139.296875
-78.67,1683446139.3125
-72.90,1683446139.328125
-66.26,1683446139.34375
-59.02,1683446139.359375
-51.39,1683446139.375
-43.59,1683446139.390625
-35.93,1683446139.40625
-28.87,1683446139.421875
-23.05,1683446139.4375
-19.04,1683446139.453125
-17.16,1683446139.46875
-17.19,1683446139.484375
-18.33,1683446139.5
-19.35,1683446139.515625
-18.91,1683446139.53125
-16.03,1683446139.546875
-10.31,1683446139.5625
-2.08,1683446139.578125
7.62,1683446139.59375
17.38,1683446139.609375
25.72,1683446139.625
31.46,1683446139.640625
34.02,1683446139.65625
33.60,1683446139.671875
31.08,1683446139.6875
27.76,1683446139.703125
24.84,1683446139.71875
23.05,1683446139.734375
22.24,1683446139.75
21.53,1683446139.765625
19.59,1683446139.78125
15.27,1683446139.796875
8.10,1683446139.8125
-1.49,1683446139.828125
-12.26,1683446139.84375
-22.48,1683446139.859375
-30.34,1683446139.875
-34.26,1683446139.890625
-33.08,1683446139.90625
-26.32,1683446139.921875
-14.36,1683446139.9375
1.37,1683446139.953125
18.52,1683446139.96875
34.29,1683446139.984375
46.26,1683446140.0
53.13,1683446140.015625
55.10,1683446140.03125
53.68,1683446140.046875
50.94,1683446140.0625
48.65,1683446140.078125
47.71,1683446140.09375
48.04,1683446140.109375
48.89,1683446140.125
49.27,1683446140.140625
48.35,1683446140.15625
45.61,1683446140.171875
40.89,1683446140.1875
34.43,1683446140.203125
26.85,1683446140.21875
19.08,1683446140.234375
12.19,1683446140.25
7.17,1683446140.265625
4.67,1683446140.28125
4.80,1683446140.296875
7.18,1683446140.3125
11.00,1683446140.328125
15.30,1683446140.34375
19.14,1683446140.359375
21.85,1683446140.375
23.15,1683446140.390625
23.14,1683446140.40625
22.14,1683446140.421875
20.45,1683446140.4375
18.26,1683446140.453125
15.61,1683446140.46875
12.54,1683446140.484375
9.28,1683446140.5
6.22,1683446140.515625
3.80,1683446140.53125
2.23,1683446140.546875
1.38,1683446140.5625
0.78,1683446140.578125
-0.14,1683446140.59375
-1.78,1683446140.609375
-4.22,1683446140.625
-7.19,1683446140.640625
-10.26,1683446140.65625
-12.90,1683446140.671875
-14.56,1683446140.6875
-14.72,1683446140.703125
-12.89,1683446140.71875
-8.77,1683446140.734375
-2.47,1683446140.75
5.35,1683446140.765625
13.53,1683446140.78125
20.69,1683446140.796875
25.67,1683446140.8125
27.89,1683446140.828125
27.52,1683446140.84375
25.29,1683446140.859375
22.17,1683446140.875
18.97,1683446140.890625
16.11,1683446140.90625
13.63,1683446140.921875
11.34,1683446140.9375
9.10,1683446140.953125
6.92,1683446140.96875
4.95,1683446140.984375
3.38,1683446141.0
2.32,1683446141.015625
1.67,1683446141.03125
1.22,1683446141.046875
0.70,1683446141.0625
-0.05,1683446141.078125
-1.10,1683446141.09375
-2.40,1683446141.109375
-3.90,1683446141.125
-5.55,1683446141.140625
-7.30,1683446141.15625
-9.11,1683446141.171875
-10.87,1683446141.1875
-12.42,1683446141.203125
-13.59,1683446141.21875
-14.30,1683446141.234375
-14.57,1683446141.25
-14.53,1683446141.265625
-14.28,1683446141.28125
-13.83,1683446141.296875
-13.07,1683446141.3125
-11.87,1683446141.328125
-10.25,1683446141.34375
-8.42,1683446141.359375
-6.80,1683446141.375
-5.76,1683446141.390625
-5.42,1683446141.40625
-5.30,1683446141.421875
-4.41,1683446141.4375
-1.37,1683446141.453125
4.99,1683446141.46875
15.15,1683446141.484375
28.38,1683446141.5
42.66,1683446141.515625
55.02,1683446141.53125
62.29,1683446141.546875
62.11,1683446141.5625
53.68,1683446141.578125
38.21,1683446141.59375
18.57,1683446141.609375
-1.45,1683446141.625
-18.13,1683446141.640625
-28.72,1683446141.65625
-31.99,1683446141.671875
-28.21,1683446141.6875
-18.90,1683446141.703125
-6.33,1683446141.71875
6.97,1683446141.734375
18.60,1683446141.75
26.55,1683446141.765625
29.38,1683446141.78125
26.34,1683446141.796875
17.41,1683446141.8125
3.28,1683446141.828125
-14.70,1683446141.84375
-34.68,1683446141.859375
-54.44,1683446141.875
-71.56,1683446141.890625
-83.70,1683446141.90625
-89.07,1683446141.921875
-86.85,1683446141.9375
-77.51,1683446141.953125
-62.89,1683446141.96875
-45.80,1683446141.984375
-29.34,1683446142.0
-16.13,1683446142.015625
-7.68,1683446142.03125
-4.14,1683446142.046875
-4.48,1683446142.0625
-6.87,1683446142.078125
-9.23,1683446142.09375
-9.69,1683446142.109375
-6.97,1683446142.125
-0.61,1683446142.140625
8.90,1683446142.15625
20.27,1683446142.171875
31.69,1683446142.1875
41.26,1683446142.203125
47.44,1683446142.21875
49.43,1683446142.234375
47.22,1683446142.25
41.53,1683446142.265625
33.56,1683446142.28125
24.68,1683446142.296875
16.17,1683446142.3125
8.97,1683446142.328125
3.62,1683446142.34375
0.25,1683446142.359375
-1.36,1683446142.375
-1.58,1683446142.390625
-0.79,1683446142.40625
0.73,1683446142.421875
2.86,1683446142.4375
5.55,1683446142.453125
8.53,1683446142.46875
11.13,1683446142.484375
12.25,1683446142.5
10.60,1683446142.515625
5.37,1683446142.53125
-3.27,1683446142.546875
-13.87,1683446142.5625
-23.98,1683446142.578125
-30.99,1683446142.59375
-33.08,1683446142.609375
-29.87,1683446142.625
-22.48,1683446142.640625
-13.04,1683446142.65625
-4.01,1683446142.671875
2.49,1683446142.6875
5.00,1683446142.703125
2.97,1683446142.71875
-3.25,1683446142.734375
-12.33,1683446142.75
-22.05,1683446142.765625
-29.82,1683446142.78125
-33.26,1683446142.796875
-31.16,1683446142.8125
-23.87,1683446142.828125
-13.28,1683446142.84375
-2.05,1683446142.859375
7.41,1683446142.875
13.78,1683446142.890625
17.19,1683446142.90625
18.85,1683446142.921875
20.34,1683446142.9375
22.79,1683446142.953125
26.35,1683446142.96875
30.15,1683446142.984375
32.61,1683446143.0
31.97,1683446143.015625
26.93,1683446143.03125
17.07,1683446143.046875
3.16,1683446143.0625
-12.99,1683446143.078125
-28.74,1683446143.09375
-41.23,1683446143.109375
-48.06,1683446143.125
-47.91,1683446143.140625
-40.82,1683446143.15625
-28.20,1683446143.171875
-12.46,1683446143.1875
3.51,1683446143.203125
16.91,1683446143.21875
25.39,1683446143.234375
27.42,1683446143.25
22.58,1683446143.265625
11.69,1683446143.28125
-3.13,1683446143.296875
-18.75,1683446143.3125
-31.70,1683446143.328125
-38.99,1683446143.34375
-38.97,1683446143.359375
-31.75,1683446143.375
-19.15,1683446143.390625
-4.01,1683446143.40625
10.61,1683446143.421875
22.32,1683446143.4375
29.81,1683446143.453125
32.90,1683446143.46875
32.26,1683446143.484375
29.02,1683446143.5
24.35,1683446143.515625
19.31,1683446143.53125
14.59,1683446143.546875
10.58,1683446143.5625
7.31,1683446143.578125
4.61,1683446143.59375
2.31,1683446143.609375
0.42,1683446143.625
-0.77,1683446143.640625
-0.80,1683446143.65625
0.73,1683446143.671875
3.85,1683446143.6875
8.06,1683446143.703125
12.35,1683446143.71875
15.57,1683446143.734375
16.79,1683446143.75
15.52,1683446143.765625
11.90,1683446143.78125
6.44,1683446143.796875
-0.11,1683446143.8125
-7.09,1683446143.828125
-13.94,1683446143.84375
-20.22,1683446143.859375
-25.53,1683446143.875
-29.37,1683446143.890625
-31.20,1683446143.90625
-30.51,1683446143.921875
-26.96,1683446143.9375
-20.56,1683446143.953125
-11.72,1683446143.96875
-1.24,1683446143.984375
9.86,1683446144.0
20.59,1683446144.015625
30.21,1683446144.03125
38.40,1683446144.046875
45.16,1683446144.0625
50.62,1683446144.078125
54.78,1683446144.09375
57.37,1683446144.109375
57.85,1683446144.125
55.58,1683446144.140625
50.14,1683446144.15625
41.50,1683446144.171875
30.12,1683446144.1875
16.98,1683446144.203125
3.36,1683446144.21875
-9.44,1683446144.234375
-20.33,1683446144.25
-28.70,1683446144.265625
-34.51,1683446144.28125
-38.15,1683446144.296875
-40.20,1683446144.3125
-41.17,1683446144.328125
-41.27,1683446144.34375
-40.50,1683446144.359375
-38.78,1683446144.375
-36.19,1683446144.390625
-32.98,1683446144.40625
-29.53,1683446144.421875
-26.24,1683446144.4375
-23.44,1683446144.453125
-21.43,1683446144.46875
-20.56,1683446144.484375
-21.21,1683446144.5
-23.61,1683446144.515625
-27.62,1683446144.53125
-32.58,1683446144.546875
-37.32,1683446144.5625
-40.47,1683446144.578125
-40.80,1683446144.59375
-37.58,1683446144.609375
-30.69,1683446144.625
-20.64,1683446144.640625
-8.42,1683446144.65625
4.69,1683446144.671875
17.27,1683446144.6875
28.01,1683446144.703125
35.94,1683446144.71875
40.61,1683446144.734375
42.13,1683446144.75
41.12,1683446144.765625
38.49,1683446144.78125
35.15,1683446144.796875
31.80,1683446144.8125
28.74,1683446144.828125
25.99,1683446144.84375
23.34,1683446144.859375
20.55,1683446144.875
17.45,1683446144.890625
13.98,1683446144.90625
10.20,1683446144.921875
6.21,1683446144.9375
2.12,1683446144.953125
-1.97,1683446144.96875
-5.84,1683446144.984375
-9.19,1683446145.0
-11.64,1683446145.015625
-12.88,1683446145.03125
-12.83,1683446145.046875
-11.74,1683446145.0625
-10.12,1683446145.078125
-8.60,1683446145.09375
-7.62,1683446145.109375
-7.36,1683446145.125
-7.68,1683446145.140625
-8.32,1683446145.15625
-9.12,1683446145.171875
-10.05,1683446145.1875
-11.21,1683446145.203125
-12.61,1683446145.21875
-14.01,1683446145.234375
-14.91,1683446145.25
-14.73,1683446145.265625
-12.97,1683446145.28125
-9.48,1683446145.296875
-4.42,1683446145.3125
1.79,1683446145.328125
8.55,1683446145.34375
15.22,1683446145.359375
21.11,1683446145.375
25.52,1683446145.390625
27.95,1683446145.40625
28.24,1683446145.421875
26.75,1683446145.4375
24.28,1683446145.453125
21.70,1683446145.46875
19.62,1683446145.484375
18.07,1683446145.5
16.64,1683446145.515625
14.82,1683446145.53125
12.44,1683446145.546875
9.84,1683446145.5625
7.68,1683446145.578125
6.59,1683446145.59375
6.78,1683446145.609375
7.91,1683446145.625
9.33,1683446145.640625
10.30,1683446145.65625
10.23,1683446145.671875
8.79,1683446145.6875
5.80,1683446145.703125
1.23,1683446145.71875
-4.67,1683446145.734375
-11.32,1683446145.75
-17.86,1683446145.765625
-23.35,1683446145.78125
-27.17,1683446145.796875
-29.28,1683446145.8125
-30.12,1683446145.828125
-30.40,1683446145.84375
-30.55,1683446145.859375
-30.47,1683446145.875
-29.54,1683446145.890625
-26.99,1683446145.90625
-22.28,1683446145.921875
-15.43,1683446145.9375
-6.97,1683446145.953125
2.27,1683446145.96875
11.44,1683446145.984375
19.86,1683446146.0
26.93,1683446146.015625
32.12,1683446146.03125
34.94,1683446146.046875
35.12,1683446146.0625
32.81,1683446146.078125
28.72,1683446146.09375
24.00,1683446146.109375
19.83,1683446146.125
16.98,1683446146.140625
15.51,1683446146.15625
14.73,1683446146.171875
13.53,1683446146.1875
10.88,1683446146.203125
6.31,1683446146.21875
0.15,1683446146.234375
-6.53,1683446146.25
-12.34,1683446146.265625
-16.00,1683446146.28125
-16.83,1683446146.296875
-14.85,1683446146.3125
-10.75,1683446146.328125
-5.54,1683446146.34375
-0.32,1683446146.359375
4.02,1683446146.375
6.83,1683446146.390625
7.70,1683446146.40625
6.45,1683446146.421875
3.05,1683446146.4375
-2.29,1683446146.453125
-9.23,1683446146.46875
-17.23,1683446146.484375
-25.66,1683446146.5
-33.77,1683446146.515625
-40.77,1683446146.53125
-45.87,1683446146.546875
-48.39,1683446146.5625
-47.93,1683446146.578125
-44.46,1683446146.59375
-38.35,1683446146.609375
-30.25,1683446146.625
-20.98,1683446146.640625
-11.33,1683446146.65625
-2.02,1683446146.671875
6.29,1683446146.6875
12.96,1683446146.703125
17.42,1683446146.71875
19.30,1683446146.734375
18.62,1683446146.75
15.83,1683446146.765625
11.76,1683446146.78125
7.33,1683446146.796875
3.28,1683446146.8125
-0.03,1683446146.828125
-2.63,1683446146.84375
-4.68,1683446146.859375
-6.27,1683446146.875
-7.24,1683446146.890625
-7.29,1683446146.90625
-6.21,1683446146.921875
-4.12,1683446146.9375
-1.54,1683446146.953125
0.74,1683446146.96875
2.02,1683446146.984375
1.93,1683446147.0
0.57,1683446147.015625
-1.63,1683446147.03125
-4.07,1683446147.046875
-6.24,1683446147.0625
-7.78,1683446147.078125
-8.51,1683446147.09375
-8.49,1683446147.109375
-8.09,1683446147.125
-7.93,1683446147.140625
-8.86,1683446147.15625
-11.61,1683446147.171875
-16.43,1683446147.1875
-22.75,1683446147.203125
-29.24,1683446147.21875
-34.14,1683446147.234375
-35.90,1683446147.25
-33.68,1683446147.265625
-27.61,1683446147.28125
-18.65,1683446147.296875
-8.21,1683446147.3125
2.31,1683446147.328125
11.79,1683446147.34375
19.44,1683446147.359375
24.75,1683446147.375
27.46,1683446147.390625
27.59,1683446147.40625
25.50,1683446147.421875
21.90,1683446147.4375
17.60,1683446147.453125
13.36,1683446147.46875
9.56,1683446147.484375
6.23,1683446147.5
3.08,1683446147.515625
-0.21,1683446147.53125
-3.77,1683446147.546875
-7.51,1683446147.5625
-11.12,1683446147.578125
-14.28,1683446147.59375
-16.70,1683446147.609375
-18.20,1683446147.625
-18.62,1683446147.640625
-17.81,1683446147.65625
-15.71,1683446147.671875
-12.43,1683446147.6875
-8.31,1683446147.703125
-3.87,1683446147.71875
0.31,1683446147.734375
3.72,1683446147.75
6.00,1683446147.765625
6.97,1683446147.78125
6.58,1683446147.796875
4.93,1683446147.8125
2.24,1683446147.828125
-1.05,1683446147.84375
-4.30,1683446147.859375
-6.79,1683446147.875
-7.84,1683446147.890625
-7.01,1683446147.90625
-4.18,1683446147.921875
0.43,1683446147.9375
6.34,1683446147.953125
12.95,1683446147.96875
19.63,1683446147.984375
25.83,1683446148.0
31.11,1683446148.015625
35.15,1683446148.03125
37.81,1683446148.046875
39.02,1683446148.0625
38.82,1683446148.078125
37.38,1683446148.09375
34.93,1683446148.109375
31.79,1683446148.125
28.38,1683446148.140625
25.10,1683446148.15625
22.31,1683446148.171875
20.30,1683446148.1875
19.17,1683446148.203125
18.83,1683446148.21875
19.02,1683446148.234375
19.40,1683446148.25
19.63,1683446148.265625
19.56,1683446148.28125
19.21,1683446148.296875
18.75,1683446148.3125
18.33,1683446148.328125
17.99,1683446148.34375
17.55,1683446148.359375
16.68,1683446148.375
15.05,1683446148.390625
12.51,1683446148.40625
9.18,1683446148.421875
5.49,1683446148.4375
1.98,1683446148.453125
-0.80,1683446148.46875
-2.49,1683446148.484375
-2.98,1683446148.5
-2.37,1683446148.515625
-0.89,1683446148.53125
1.15,1683446148.546875
3.44,1683446148.5625
5.69,1683446148.578125
7.66,1683446148.59375
9.21,1683446148.609375
10.34,1683446148.625
11.25,1683446148.640625
12.27,1683446148.65625
13.69,1683446148.671875
15.64,1683446148.6875
18.03,1683446148.703125
20.54,1683446148.71875
22.88,1683446148.734375
24.95,1683446148.75
26.90,1683446148.765625
29.09,1683446148.78125
31.68,1683446148.796875
34.38,1683446148.8125
36.34,1683446148.828125
36.29,1683446148.84375
33.03,1683446148.859375
25.85,1683446148.875
14.92,1683446148.890625
1.22,1683446148.90625
-13.60,1683446148.921875
-27.69,1683446148.9375
-39.33,1683446148.953125
-47.24,1683446148.96875
-50.85,1683446148.984375
-50.28,1683446149.0
-46.39,1683446149.015625
-40.61,1683446149.03125
-34.64,1683446149.046875
-30.10,1683446149.0625
-28.09,1683446149.078125
-29.02,1683446149.09375
-32.45,1683446149.109375
-37.31,1683446149.125
-42.17,1683446149.140625
-45.68,1683446149.15625
-46.97,1683446149.171875
-45.91,1683446149.1875
-43.06,1683446149.203125
-39.37,1683446149.21875
-35.65,1683446149.234375
-32.02,1683446149.25
-27.68,1683446149.265625
-21.09,1683446149.28125
-10.60,1683446149.296875
4.68,1683446149.3125
24.18,1683446149.328125
45.59,1683446149.34375
65.27,1683446149.359375
79.19,1683446149.375
84.18,1683446149.390625
79.11,1683446149.40625
65.53,1683446149.421875
47.59,1683446149.4375
31.04,1683446149.453125
21.52,1683446149.46875
22.82,1683446149.484375
35.56,1683446149.5
56.94,1683446149.515625
81.75,1683446149.53125
104.12,1683446149.546875
119.48,1683446149.5625
125.87,1683446149.578125
124.24,1683446149.59375
117.74,1683446149.609375
110.59,1683446149.625
107.00,1683446149.640625
110.23,1683446149.65625
121.77,1683446149.671875
140.93,1683446149.6875
164.76,1683446149.703125
188.76,1683446149.71875
208.12,1683446149.734375
219.21,1683446149.75
220.58,1683446149.765625
213.04,1683446149.78125
198.89,1683446149.796875
180.77,1683446149.8125
160.69,1683446149.828125
139.58,1683446149.84375
117.50,1683446149.859375
94.02,1683446149.875
68.43,1683446149.890625
39.94,1683446149.90625
7.65,1683446149.921875
-29.46,1683446149.9375
-72.43,1683446149.953125
-121.84,1683446149.96875
-177.14,1683446149.984375
-236.05,1683446150.0
-294.36,1683446150.015625
-346.47,1683446150.03125
-386.61,1683446150.046875
-410.55,1683446150.0625
-416.57,1683446150.078125
-405.35,1683446150.09375
-378.91,1683446150.109375
-339.39,1683446150.125
-288.81,1683446150.140625
-229.76,1683446150.15625
-166.47,1683446150.171875
-104.84,1683446150.1875
-51.35,1683446150.203125
-10.88,1683446150.21875
14.94,1683446150.234375
28.37,1683446150.25
34.51,1683446150.265625
39.50,1683446150.28125
48.73,1683446150.296875
65.67,1683446150.3125
91.61,1683446150.328125
125.57,1683446150.34375
164.67,1683446150.359375
204.44,1683446150.375
239.69,1683446150.390625
265.72,1683446150.40625
279.75,1683446150.421875
281.97,1683446150.4375
275.34,1683446150.453125
264.28,1683446150.46875
252.84,1683446150.484375
243.22,1683446150.5
235.22,1683446150.515625
226.83,1683446150.53125
215.69,1683446150.546875
200.52,1683446150.5625
181.89,1683446150.578125
162.01,1683446150.59375
143.68,1683446150.609375
129.06,1683446150.625
118.93,1683446150.640625
112.53,1683446150.65625
108.07,1683446150.671875
103.42,1683446150.6875
96.66,1683446150.703125
86.40,1683446150.71875
71.79,1683446150.734375
52.46,1683446150.75
28.36,1683446150.765625
-0.12,1683446150.78125
-32.02,1683446150.796875
-65.65,1683446150.8125
-98.72,1683446150.828125
-128.69,1683446150.84375
-153.48,1683446150.859375
-171.97,1683446150.875
-184.31,1683446150.890625
-191.60,1683446150.90625
-195.45,1683446150.921875
-197.32,1683446150.9375
-198.24,1683446150.953125
-198.77,1683446150.96875
-199.08,1683446150.984375
-199.00,1683446151.0
-198.20,1683446151.015625
-196.26,1683446151.03125
-193.00,1683446151.046875
-188.84,1683446151.0625
-184.78,1683446151.078125
-182.10,1683446151.09375
-181.69,1683446151.109375
-183.44,1683446151.125
-186.19,1683446151.140625
-188.36,1683446151.15625
-188.73,1683446151.171875
-187.16,1683446151.1875
-184.61,1683446151.203125
-182.45,1683446151.21875
-181.44,1683446151.234375
-181.09,1683446151.25
-179.81,1683446151.265625
-175.90,1683446151.28125
-168.71,1683446151.296875
-158.94,1683446151.3125
-147.96,1683446151.328125
-136.72,1683446151.34375
-125.02,1683446151.359375
-111.83,1683446151.375
-96.29,1683446151.390625
-78.55,1683446151.40625
-59.58,1683446151.421875
-40.05,1683446151.4375
-19.44,1683446151.453125
4.00,1683446151.46875
31.93,1683446151.484375
64.39,1683446151.5
98.87,1683446151.515625
130.89,1683446151.53125
155.68,1683446151.546875
169.83,1683446151.5625
172.22,1683446151.578125
163.89,1683446151.59375
147.22,1683446151.609375
125.11,1683446151.625
100.31,1683446151.640625
74.97,1683446151.65625
50.35,1683446151.671875
26.73,1683446151.6875
3.67,1683446151.703125
-19.08,1683446151.71875
-40.93,1683446151.734375
-60.31,1683446151.75
-75.35,1683446151.765625
-85.12,1683446151.78125
-90.49,1683446151.796875
-93.96,1683446151.8125
-98.31,1683446151.828125
-105.29,1683446151.84375
-114.63,1683446151.859375
-124.19,1683446151.875
-131.02,1683446151.890625
-132.75,1683446151.90625
-128.55,1683446151.921875
-119.52,1683446151.9375
-108.13,1683446151.953125
-97.08,1683446151.96875
-88.07,1683446151.984375
-81.24,1683446152.0
-75.39,1683446152.015625
-69.05,1683446152.03125
-61.45,1683446152.046875
-52.98,1683446152.0625
-44.80,1683446152.078125
-37.96,1683446152.09375
-32.58,1683446152.109375
-27.66,1683446152.125
-21.61,1683446152.140625
-13.24,1683446152.15625
-2.63,1683446152.171875
8.75,1683446152.1875
18.56,1683446152.203125
24.69,1683446152.21875
26.20,1683446152.234375
23.74,1683446152.25
19.23,1683446152.265625
15.02,1683446152.28125
12.99,1683446152.296875
13.85,1683446152.3125
17.09,1683446152.328125
21.39,1683446152.34375
25.26,1683446152.359375
27.80,1683446152.375
28.85,1683446152.390625
28.77,1683446152.40625
27.98,1683446152.421875
26.55,1683446152.4375
24.22,1683446152.453125
20.64,1683446152.46875
15.76,1683446152.484375
9.89,1683446152.5
3.86,1683446152.515625
-1.24,1683446152.53125
-4.48,1683446152.546875
-5.56,1683446152.5625
-5.01,1683446152.578125
-3.89,1683446152.59375
-3.22,1683446152.609375
-3.45,1683446152.625
-4.54,1683446152.640625
-5.71,1683446152.65625
-6.06,1683446152.671875
-4.95,1683446152.6875
-2.54,1683446152.703125
0.33,1683446152.71875
2.46,1683446152.734375
3.02,1683446152.75
1.80,1683446152.765625
-1.47,1683446152.78125
-6.58,1683446152.796875
-13.25,1683446152.8125
-20.97,1683446152.828125
-29.20,1683446152.84375
-37.53,1683446152.859375
-45.69,1683446152.875
-53.56,1683446152.890625
-61.45,1683446152.90625
-71.12,1683446152.921875
-83.90,1683446152.9375
-100.27,1683446152.953125
-118.46,1683446152.96875
-134.28,1683446152.984375
-142.09,1683446153.0
-136.76,1683446153.015625
-115.78,1683446153.03125
-80.22,1683446153.046875
-35.69,1683446153.0625
11.64,1683446153.078125
56.52,1683446153.09375
96.24,1683446153.109375
129.64,1683446153.125
155.31,1683446153.140625
170.74,1683446153.15625
173.05,1683446153.171875
170.43,1683446153.1875
169.85,1683446153.203125
177.30,1683446153.21875
193.86,1683446153.234375
216.89,1683446153.25
241.93,1683446153.265625
264.50,1683446153.28125
281.57,1683446153.296875
292.54,1683446153.3125
299.16,1683446153.328125
300.90,1683446153.34375
299.86,1683446153.359375
296.73,1683446153.375
292.22,1683446153.390625
286.98,1683446153.40625
281.47,1683446153.421875
275.98,1683446153.4375
270.48,1683446153.453125
264.39,1683446153.46875
255.12,1683446153.484375
244.25,1683446153.5
231.60,1683446153.515625
217.47,1683446153.53125
202.52,1683446153.546875
187.49,1683446153.5625
172.96,1683446153.578125
159.34,1683446153.59375
146.82,1683446153.609375
134.75,1683446153.625
122.91,1683446153.640625
110.58,1683446153.65625
97.76,1683446153.671875
84.86,1683446153.6875
72.35,1683446153.703125
60.49,1683446153.71875
49.33,1683446153.734375
38.68,1683446153.75
28.02,1683446153.765625
17.21,1683446153.78125
5.95,1683446153.796875
-5.52,1683446153.8125
-16.70,1683446153.828125
-27.22,1683446153.84375
-37.06,1683446153.859375
-46.62,1683446153.875
-56.48,1683446153.890625
-67.30,1683446153.90625
-79.20,1683446153.921875
-92.22,1683446153.9375
-105.83,1683446153.953125
-119.31,1683446153.96875
-132.12,1683446153.984375
-144.08,1683446154.0
-155.52,1683446154.015625
-167.24,1683446154.03125
-180.35,1683446154.046875
-195.99,1683446154.0625
-214.95,1683446154.078125
-236.81,1683446154.09375
-259.55,1683446154.109375
-279.63,1683446154.125
-292.74,1683446154.140625
-295.11,1683446154.15625
-285.02,1683446154.171875
-263.55,1683446154.1875
-234.46,1683446154.203125
-202.90,1683446154.21875
-173.57,1683446154.234375
-149.25,1683446154.25
-130.21,1683446154.265625
-114.83,1683446154.28125
-100.95,1683446154.296875
-87.16,1683446154.3125
-73.55,1683446154.328125
-61.37,1683446154.34375
-52.14,1683446154.359375
-46.61,1683446154.375
-44.32,1683446154.390625
-43.91,1683446154.40625
-43.75,1683446154.421875
-42.68,1683446154.4375
-40.24,1683446154.453125
-36.44,1683446154.46875
-31.41,1683446154.484375
-25.46,1683446154.5
-19.35,1683446154.515625
-14.69,1683446154.53125
-13.94,1683446154.546875
-19.67,1683446154.5625
-33.19,1683446154.578125
-53.35,1683446154.59375
-76.10,1683446154.609375
-95.61,1683446154.625
-106.38,1683446154.640625
-105.30,1683446154.65625
-92.58,1683446154.671875
-71.09,1683446154.6875
-44.53,1683446154.703125
-15.64,1683446154.71875
14.30,1683446154.734375
44.81,1683446154.75
74.74,1683446154.765625
101.54,1683446154.78125
121.91,1683446154.796875
133.50,1683446154.8125
136.67,1683446154.828125
134.77,1683446154.84375
132.69,1683446154.859375
134.32,1683446154.875
140.37,1683446154.890625
147.94,1683446154.90625
151.75,1683446154.921875
146.71,1683446154.9375
129.93,1683446154.953125
101.49,1683446154.96875
63.76,1683446154.984375
19.90,1683446155.0
-27.04,1683446155.015625
-74.26,1683446155.03125
-118.83,1683446155.046875
-157.93,1683446155.0625
-189.52,1683446155.078125
-213.27,1683446155.09375
-230.50,1683446155.109375
-243.23,1683446155.125
-253.04,1683446155.140625
-260.21,1683446155.15625
-264.15,1683446155.171875
-264.41,1683446155.1875
-261.84,1683446155.203125
-258.80,1683446155.21875
-258.11,1683446155.234375
-261.50,1683446155.25
-268.34,1683446155.265625
-276.21,1683446155.28125
-282.39,1683446155.296875
-285.31,1683446155.3125
-284.78,1683446155.328125
-281.24,1683446155.34375
-274.91,1683446155.359375
-265.59,1683446155.375
-253.36,1683446155.390625
-238.96,1683446155.40625
-223.86,1683446155.421875
-209.20,1683446155.4375
-194.72,1683446155.453125
-178.81,1683446155.46875
-159.12,1683446155.484375
-133.98,1683446155.5
-103.44,1683446155.515625
-69.38,1683446155.53125
-34.29,1683446155.546875
0.12,1683446155.5625
33.62,1683446155.578125
66.79,1683446155.59375
99.65,1683446155.609375
130.76,1683446155.625
157.43,1683446155.640625
176.74,1683446155.65625
186.98,1683446155.671875
188.59,1683446155.6875
184.22,1683446155.703125
177.71,1683446155.71875
172.24,1683446155.734375
168.82,1683446155.75
166.30,1683446155.765625
162.43,1683446155.78125
155.50,1683446155.796875
145.40,1683446155.8125
133.53,1683446155.828125
121.56,1683446155.84375
110.10,1683446155.859375
98.36,1683446155.875
85.09,1683446155.890625
70.22,1683446155.90625
55.73,1683446155.921875
45.01,1683446155.9375
41.17,1683446155.953125
44.93,1683446155.96875
53.97,1683446155.984375
64.09,1683446156.0
71.48,1683446156.015625
74.54,1683446156.03125
74.30,1683446156.046875
73.27,1683446156.0625
73.56,1683446156.078125
75.54,1683446156.09375
77.57,1683446156.109375
76.87,1683446156.125
71.25,1683446156.140625
60.50,1683446156.15625
47.01,1683446156.171875
34.74,1683446156.1875
27.49,1683446156.203125
27.09,1683446156.21875
32.48,1683446156.234375
40.27,1683446156.25
46.49,1683446156.265625
48.81,1683446156.28125
47.49,1683446156.296875
44.87,1683446156.3125
44.07,1683446156.328125
47.52,1683446156.34375
56.15,1683446156.359375
69.33,1683446156.375
85.03,1683446156.390625
100.30,1683446156.40625
111.95,1683446156.421875
117.45,1683446156.4375
115.79,1683446156.453125
107.93,1683446156.46875
96.44,1683446156.484375
84.28,1683446156.5
73.36,1683446156.515625
63.65,1683446156.53125
53.67,1683446156.546875
41.99,1683446156.5625
29.00,1683446156.578125
17.30,1683446156.59375
10.45,1683446156.609375
10.75,1683446156.625
17.75,1683446156.640625
28.44,1683446156.65625
38.97,1683446156.671875
46.69,1683446156.6875
51.22,1683446156.703125
54.15,1683446156.71875
57.64,1683446156.734375
63.01,1683446156.75
69.78,1683446156.765625
75.85,1683446156.78125
78.45,1683446156.796875
75.30,1683446156.8125
65.57,1683446156.828125
50.02,1683446156.84375
30.80,1683446156.859375
10.89,1683446156.875
-6.43,1683446156.890625
-18.40,1683446156.90625
-23.59,1683446156.921875
-22.20,1683446156.9375
-15.88,1683446156.953125
-7.04,1683446156.96875
1.91,1683446156.984375
9.09,1683446157.0
13.26,1683446157.015625
13.88,1683446157.03125
11.06,1683446157.046875
5.53,1683446157.0625
-1.47,1683446157.078125
-8.63,1683446157.09375
-14.86,1683446157.109375
-19.73,1683446157.125
-23.50,1683446157.140625
-27.11,1683446157.15625
-31.82,1683446157.171875
-38.63,1683446157.1875
-47.58,1683446157.203125
-57.34,1683446157.21875
-65.42,1683446157.234375
-69.05,1683446157.25
-66.23,1683446157.265625
-56.55,1683446157.28125
-41.39,1683446157.296875
-23.33,1683446157.3125
-5.14,1683446157.328125
11.20,1683446157.34375
24.87,1683446157.359375
36.02,1683446157.375
45.08,1683446157.390625
52.18,1683446157.40625
56.94,1683446157.421875
58.90,1683446157.4375
58.08,1683446157.453125
55.47,1683446157.46875
52.91,1683446157.484375
52.83,1683446157.5
57.40,1683446157.515625
67.81,1683446157.53125
83.58,1683446157.546875
102.39,1683446157.5625
120.68,1683446157.578125
134.71,1683446157.59375
141.90,1683446157.609375
141.70,1683446157.625
135.84,1683446157.640625
127.48,1683446157.65625
119.77,1683446157.671875
114.09,1683446157.6875
109.05,1683446157.703125
100.47,1683446157.71875
82.62,1683446157.734375
50.33,1683446157.75
1.18,1683446157.765625
-62.84,1683446157.78125
-135.21,1683446157.796875
-206.10,1683446157.8125
-264.87,1683446157.828125
-302.90,1683446157.84375
-315.94,1683446157.859375
-305.05,1683446157.875
-275.87,1683446157.890625
-236.49,1683446157.90625
-194.83,1683446157.921875
-156.53,1683446157.9375
-124.23,1683446157.953125
-97.94,1683446157.96875
-76.32,1683446157.984375
-57.61,1683446158.0
-40.13,1683446158.015625
-22.33,1683446158.03125
-2.74,1683446158.046875
19.68,1683446158.0625
44.99,1683446158.078125
71.84,1683446158.09375
97.55,1683446158.109375
118.79,1683446158.125
132.63,1683446158.140625
137.55,1683446158.15625
133.87,1683446158.171875
123.45,1683446158.1875
109.03,1683446158.203125
93.36,1683446158.21875
78.69,1683446158.234375
66.39,1683446158.25
56.92,1683446158.265625
50.06,1683446158.28125
45.30,1683446158.296875
42.32,1683446158.3125
41.28,1683446158.328125
42.77,1683446158.34375
47.41,1683446158.359375
55.18,1683446158.375
65.06,1683446158.390625
75.10,1683446158.40625
83.00,1683446158.421875
86.83,1683446158.4375
85.66,1683446158.453125
79.61,1683446158.46875
69.59,1683446158.484375
56.80,1683446158.5
42.32,1683446158.515625
27.01,1683446158.53125
11.74,1683446158.546875
-2.37,1683446158.5625
-13.99,1683446158.578125
-21.70,1683446158.59375
-24.37,1683446158.609375
-21.49,1683446158.625
-13.39,1683446158.640625
-1.33,1683446158.65625
12.59,1683446158.671875
25.84,1683446158.6875
36.07,1683446158.703125
41.66,1683446158.71875
42.12,1683446158.734375
38.01,1683446158.75
30.68,1683446158.765625
21.72,1683446158.78125
12.54,1683446158.796875
4.21,1683446158.8125
-2.62,1683446158.828125
-7.63,1683446158.84375
-10.77,1683446158.859375
-12.27,1683446158.875
-12.57,1683446158.890625
-12.17,1683446158.90625
-11.50,1683446158.921875
-10.80,1683446158.9375
-10.17,1683446158.953125
-9.69,1683446158.96875
-9.55,1683446158.984375
-9.91,1683446159.0
-10.68,1683446159.015625
-11.34,1683446159.03125
-10.97,1683446159.046875
-8.63,1683446159.0625
-3.81,1683446159.078125
3.11,1683446159.09375
10.83,1683446159.109375
17.41,1683446159.125
21.00,1683446159.140625
20.44,1683446159.15625
15.69,1683446159.171875
7.69,1683446159.1875
-1.94,1683446159.203125
-11.44,1683446159.21875
-19.25,1683446159.234375
-24.28,1683446159.25
-25.95,1683446159.265625
-24.24,1683446159.28125
-19.50,1683446159.296875
-12.32,1683446159.3125
-3.24,1683446159.328125
7.34,1683446159.34375
19.10,1683446159.359375
31.62,1683446159.375
44.26,1683446159.390625
56.23,1683446159.40625
66.90,1683446159.421875
76.03,1683446159.4375
84.00,1683446159.453125
91.70,1683446159.46875
100.11,1683446159.484375
109.84,1683446159.5
120.77,1683446159.515625
132.08,1683446159.53125
142.57,1683446159.546875
151.25,1683446159.5625
157.72,1683446159.578125
162.10,1683446159.59375
164.74,1683446159.609375
165.70,1683446159.625
164.56,1683446159.640625
160.40,1683446159.65625
152.28,1683446159.671875
139.64,1683446159.6875
122.68,1683446159.703125
102.36,1683446159.71875
80.08,1683446159.734375
57.29,1683446159.75
35.08,1683446159.765625
14.04,1683446159.78125
-5.73,1683446159.796875
-24.40,1683446159.8125
-42.33,1683446159.828125
-59.81,1683446159.84375
-76.83,1683446159.859375
-92.79,1683446159.875
-106.50,1683446159.890625
-116.44,1683446159.90625
-121.26,1683446159.921875
-120.32,1683446159.9375
-114.05,1683446159.953125
-103.84,1683446159.96875
-91.90,1683446159.984375
-80.71,1683446160.0
-72.71,1683446160.015625
-69.92,1683446160.03125
-73.56,1683446160.046875
-83.71,1683446160.0625
-99.10,1683446160.078125
-117.14,1683446160.09375
-134.45,1683446160.109375
-147.85,1683446160.125
-155.38,1683446160.140625
-157.15,1683446160.15625
-155.20,1683446160.171875
-152.41,1683446160.1875
-151.02,1683446160.203125
-151.43,1683446160.21875
-152.03,1683446160.234375
-150.20,1683446160.25
-143.74,1683446160.265625
-131.59,1683446160.28125
-113.71,1683446160.296875
-90.26,1683446160.3125
-61.07,1683446160.328125
-26.07,1683446160.34375
13.69,1683446160.359375
55.12,1683446160.375
93.37,1683446160.390625
123.34,1683446160.40625
141.72,1683446160.421875
148.14,1683446160.4375
144.63,1683446160.453125
134.03,1683446160.46875
118.27,1683446160.484375
97.92,1683446160.5
73.06,1683446160.515625
44.72,1683446160.53125
15.58,1683446160.546875
-10.51,1683446160.5625
-30.07,1683446160.578125
-41.35,1683446160.59375
-44.93,1683446160.609375
-43.17,1683446160.625
-39.13,1683446160.640625
-35.48,1683446160.65625
-33.58,1683446160.671875
-33.16,1683446160.6875
-32.45,1683446160.703125
-28.97,1683446160.71875
-20.68,1683446160.734375
-7.09,1683446160.75
10.14,1683446160.765625
27.61,1683446160.78125
41.37,1683446160.796875
48.46,1683446160.8125
47.87,1683446160.828125
40.73,1683446160.84375
29.81,1683446160.859375
18.74,1683446160.875
11.29,1683446160.890625
10.68,1683446160.90625
18.88,1683446160.921875
35.99,1683446160.9375
59.85,1683446160.953125
86.47,1683446160.96875
111.26,1683446160.984375
130.53,1683446161.0
142.52,1683446161.015625
147.48,1683446161.03125
146.85,1683446161.046875
142.33,1683446161.0625
135.20,1683446161.078125
126.40,1683446161.09375
116.78,1683446161.109375
107.21,1683446161.125
98.21,1683446161.140625
89.28,1683446161.15625
78.66,1683446161.171875
63.80,1683446161.1875
42.46,1683446161.203125
13.87,1683446161.21875
-20.62,1683446161.234375
-57.78,1683446161.25
-93.41,1683446161.265625
-123.49,1683446161.28125
-145.12,1683446161.296875
-157.04,1683446161.3125
-159.56,1683446161.328125
-154.26,1683446161.34375
-143.42,1683446161.359375
-129.69,1683446161.375
-115.87,1683446161.390625
-104.65,1683446161.40625
-98.23,1683446161.421875
-97.89,1683446161.4375
-103.49,1683446161.453125
-113.44,1683446161.46875
-125.11,1683446161.484375
-135.69,1683446161.5
-143.07,1683446161.515625
-146.34,1683446161.53125
-145.72,1683446161.546875
-142.28,1683446161.5625
-137.61,1683446161.578125
-133.59,1683446161.59375
-131.94,1683446161.609375
-133.77,1683446161.625
-138.60,1683446161.640625
-143.80,1683446161.65625
-144.78,1683446161.671875
-136.38,1683446161.6875
-115.22,1683446161.703125
-82.11,1683446161.71875
-42.90,1683446161.734375
-6.96,1683446161.75
16.59,1683446161.765625
23.13,1683446161.78125
14.71,1683446161.796875
-1.05,1683446161.8125
-15.09,1683446161.828125
-21.43,1683446161.84375
-19.69,1683446161.859375
-14.02,1683446161.875
-9.73,1683446161.890625
-9.55,1683446161.90625
-11.78,1683446161.921875
-11.63,1683446161.9375
-4.41,1683446161.953125
11.34,1683446161.96875
32.88,1683446161.984375
54.85,1683446162.0
72.30,1683446162.015625
83.35,1683446162.03125
89.97,1683446162.046875
96.71,1683446162.0625
107.99,1683446162.078125
125.69,1683446162.09375
148.22,1683446162.109375
171.19,1683446162.125
189.70,1683446162.140625
200.82,1683446162.15625
204.96,1683446162.171875
205.22,1683446162.1875
205.37,1683446162.203125
207.71,1683446162.21875
211.91,1683446162.234375
215.50,1683446162.25
215.62,1683446162.265625
210.69,1683446162.28125
201.09,1683446162.296875
188.64,1683446162.3125
175.40,1683446162.328125
162.63,1683446162.34375
150.54,1683446162.359375
138.50,1683446162.375
125.55,1683446162.390625
110.75,1683446162.40625
93.46,1683446162.421875
73.64,1683446162.4375
52.04,1683446162.453125
30.22,1683446162.46875
10.21,1683446162.484375
-6.16,1683446162.5
-17.99,1683446162.515625
-25.44,1683446162.53125
-29.35,1683446162.546875
-30.60,1683446162.5625
-29.62,1683446162.578125
-26.63,1683446162.59375
-22.18,1683446162.609375
-17.55,1683446162.625
-14.68,1683446162.640625
-15.29,1683446162.65625
-19.93,1683446162.671875
-27.69,1683446162.6875
-36.62,1683446162.703125
-44.79,1683446162.71875
-51.09,1683446162.734375
-55.31,1683446162.75
-57.71,1683446162.765625
-58.40,1683446162.78125
-57.11,1683446162.796875
-53.54,1683446162.8125
-47.77,1683446162.828125
-40.42,1683446162.84375
-32.47,1683446162.859375
-24.94,1683446162.875
-18.73,1683446162.890625
-14.80,1683446162.90625
-14.28,1683446162.921875
-18.34,1683446162.9375
-27.72,1683446162.953125
-42.37,1683446162.96875
-61.31,1683446162.984375
-83.07,1683446163.0
-106.11,1683446163.015625
-129.23,1683446163.03125
-151.40,1683446163.046875
-171.49,1683446163.0625
-188.01,1683446163.078125
-199.21,1683446163.09375
-203.49,1683446163.109375
-199.89,1683446163.125
-188.43,1683446163.140625
-170.20,1683446163.15625
-147.29,1683446163.171875
-122.45,1683446163.1875
-98.65,1683446163.203125
-78.50,1683446163.21875
-63.68,1683446163.234375
-54.49,1683446163.25
-49.84,1683446163.265625
-47.71,1683446163.28125
-45.87,1683446163.296875
-42.75,1683446163.3125
-37.87,1683446163.328125
-31.72,1683446163.34375
-25.12,1683446163.359375
-18.52,1683446163.375
-11.70,1683446163.390625
-4.02,1683446163.40625
4.72,1683446163.421875
13.70,1683446163.4375
21.00,1683446163.453125
24.44,1683446163.46875
22.83,1683446163.484375
16.84,1683446163.5
9.01,1683446163.515625
2.51,1683446163.53125
-0.57,1683446163.546875
-0.40,1683446163.5625
0.70,1683446163.578125
-0.39,1683446163.59375
-5.71,1683446163.609375
-14.97,1683446163.625
-25.54,1683446163.640625
-33.75,1683446163.65625
-36.69,1683446163.671875
-33.54,1683446163.6875
-25.78,1683446163.703125
-16.39,1683446163.71875
-8.45,1683446163.734375
-3.90,1683446163.75
-3.06,1683446163.765625
