1685087696.00,timestamp
-0.00,1685087696.0
-0.00,1685087696.015625
-0.00,1685087696.03125
-0.00,1685087696.046875
-0.00,1685087696.0625
-0.00,1685087696.078125
-0.00,1685087696.09375
-0.00,1685087696.109375
-0.00,1685087696.125
-0.00,1685087696.140625
0.00,1685087696.15625
0.01,1685087696.171875
0.01,1685087696.1875
-0.00,1685087696.203125
-0.03,1685087696.21875
-0.05,1685087696.234375
-0.05,1685087696.25
0.00,1685087696.265625
0.13,1685087696.28125
0.36,1685087696.296875
0.66,1685087696.3125
1.01,1685087696.328125
1.37,1685087696.34375
1.72,1685087696.359375
2.06,1685087696.375
2.40,1685087696.390625
2.79,1685087696.40625
3.24,1685087696.421875
3.80,1685087696.4375
4.42,1685087696.453125
5.06,1685087696.46875
5.66,1685087696.484375
6.20,1685087696.5
6.68,1685087696.515625
7.15,1685087696.53125
7.68,1685087696.546875
8.31,1685087696.5625
9.14,1685087696.578125
10.09,1685087696.59375
11.04,1685087696.609375
11.88,1685087696.625
12.56,1685087696.640625
13.14,1685087696.65625
13.76,1685087696.671875
14.65,1685087696.6875
15.96,1685087696.703125
17.91,1685087696.71875
20.32,1685087696.734375
22.90,1685087696.75
25.38,1685087696.765625
27.58,1685087696.78125
29.57,1685087696.796875
31.68,1685087696.8125
34.32,1685087696.828125
37.81,1685087696.84375
42.54,1685087696.859375
48.15,1685087696.875
54.10,1685087696.890625
59.83,1685087696.90625
64.97,1685087696.921875
69.58,1685087696.9375
74.14,1685087696.953125
79.34,1685087696.96875
85.71,1685087696.984375
93.76,1685087697.0
103.00,1685087697.015625
112.62,1685087697.03125
121.73,1685087697.046875
129.77,1685087697.0625
136.75,1685087697.078125
143.30,1685087697.09375
150.75,1685087697.109375
157.77,1685087697.125
166.64,1685087697.140625
177.95,1685087697.15625
191.79,1685087697.171875
206.97,1685087697.1875
220.57,1685087697.203125
228.25,1685087697.21875
225.36,1685087697.234375
208.53,1685087697.25
176.87,1685087697.265625
132.76,1685087697.28125
80.05,1685087697.296875
23.07,1685087697.3125
-34.94,1685087697.328125
-92.44,1685087697.34375
-149.16,1685087697.359375
-205.23,1685087697.375
-260.37,1685087697.390625
-313.74,1685087697.40625
-363.87,1685087697.421875
-409.83,1685087697.4375
-450.91,1685087697.453125
-486.50,1685087697.46875
-515.74,1685087697.484375
-537.23,1685087697.5
-549.22,1685087697.515625
-549.96,1685087697.53125
-538.37,1685087697.546875
-514.21,1685087697.5625
-478.67,1685087697.578125
-433.88,1685087697.59375
-382.45,1685087697.609375
-327.02,1685087697.625
-269.84,1685087697.640625
-212.63,1685087697.65625
-156.66,1685087697.671875
-102.95,1685087697.6875
-52.37,1685087697.703125
-5.90,1685087697.71875
35.58,1685087697.734375
71.43,1685087697.75
101.35,1685087697.765625
125.50,1685087697.78125
144.38,1685087697.796875
158.69,1685087697.8125
169.15,1685087697.828125
176.37,1685087697.84375
180.75,1685087697.859375
182.57,1685087697.875
182.07,1685087697.890625
179.51,1685087697.90625
175.23,1685087697.921875
169.65,1685087697.9375
163.18,1685087697.953125
156.15,1685087697.96875
148.81,1685087697.984375
141.30,1685087698.0
133.68,1685087698.015625
126.01,1685087698.03125
118.33,1685087698.046875
110.70,1685087698.0625
103.18,1685087698.078125
95.84,1685087698.09375
88.71,1685087698.109375
81.81,1685087698.125
75.15,1685087698.140625
68.76,1685087698.15625
62.67,1685087698.171875
56.91,1685087698.1875
51.49,1685087698.203125
46.43,1685087698.21875
41.70,1685087698.234375
37.26,1685087698.25
33.10,1685087698.265625
29.19,1685087698.28125
25.56,1685087698.296875
22.21,1685087698.3125
19.18,1685087698.328125
16.46,1685087698.34375
14.06,1685087698.359375
11.91,1685087698.375
9.96,1685087698.390625
8.16,1685087698.40625
6.49,1685087698.421875
4.98,1685087698.4375
3.67,1685087698.453125
2.62,1685087698.46875
1.85,1685087698.484375
1.30,1685087698.5
0.86,1685087698.515625
0.39,1685087698.53125
-0.23,1685087698.546875
-1.01,1685087698.5625
-1.88,1685087698.578125
-2.67,1685087698.59375
-3.20,1685087698.609375
-3.39,1685087698.625
-3.31,1685087698.640625
-3.16,1685087698.65625
-3.25,1685087698.671875
-3.77,1685087698.6875
-4.76,1685087698.703125
-6.04,1685087698.71875
-7.25,1685087698.734375
-8.04,1685087698.75
-8.24,1685087698.765625
-7.96,1685087698.78125
-7.56,1685087698.796875
-7.53,1685087698.8125
-8.21,1685087698.828125
-9.68,1685087698.84375
-11.64,1685087698.859375
-13.52,1685087698.875
-14.86,1685087698.890625
-15.38,1685087698.90625
-15.19,1685087698.921875
-14.67,1685087698.9375
-14.35,1685087698.953125
-14.65,1685087698.96875
-15.88,1685087698.984375
-18.23,1685087699.0
-21.68,1685087699.015625
-25.70,1685087699.03125
-29.09,1685087699.046875
-30.07,1685087699.0625
-26.90,1685087699.078125
-18.75,1685087699.09375
-6.33,1685087699.109375
8.04,1685087699.125
21.30,1685087699.140625
30.82,1685087699.15625
35.47,1685087699.171875
35.87,1685087699.1875
33.75,1685087699.203125
30.90,1685087699.21875
28.33,1685087699.234375
26.08,1685087699.25
23.71,1685087699.265625
20.94,1685087699.28125
18.00,1685087699.296875
15.52,1685087699.3125
14.07,1685087699.328125
13.76,1685087699.34375
14.15,1685087699.359375
14.53,1685087699.375
14.24,1685087699.390625
13.12,1685087699.40625
11.46,1685087699.421875
9.80,1685087699.4375
8.69,1685087699.453125
8.36,1685087699.46875
8.74,1685087699.484375
9.63,1685087699.5
10.90,1685087699.515625
12.67,1685087699.53125
15.18,1685087699.546875
18.56,1685087699.5625
22.63,1685087699.578125
26.87,1685087699.59375
30.53,1685087699.609375
32.92,1685087699.625
33.65,1685087699.640625
32.73,1685087699.65625
30.44,1685087699.671875
27.19,1685087699.6875
23.42,1685087699.703125
19.22,1685087699.71875
14.68,1685087699.734375
9.99,1685087699.75
5.39,1685087699.765625
1.20,1685087699.78125
-2.38,1685087699.796875
-5.28,1685087699.8125
-7.62,1685087699.828125
-9.60,1685087699.84375
-11.44,1685087699.859375
-13.21,1685087699.875
-14.85,1685087699.890625
-16.23,1685087699.90625
-17.21,1685087699.921875
-17.76,1685087699.9375
-17.94,1685087699.953125
-17.87,1685087699.96875
-17.68,1685087699.984375
-17.49,1685087700.0
-17.36,1685087700.015625
-17.30,1685087700.03125
-17.31,1685087700.046875
-17.31,1685087700.0625
-17.25,1685087700.078125
-17.01,1685087700.09375
-16.51,1685087700.109375
-15.74,1685087700.125
-14.78,1685087700.140625
-13.83,1685087700.15625
-13.13,1685087700.171875
-12.89,1685087700.1875
-13.15,1685087700.203125
-13.71,1685087700.21875
-14.17,1685087700.234375
-13.97,1685087700.25
-12.63,1685087700.265625
-9.86,1685087700.28125
-5.69,1685087700.296875
-0.45,1685087700.3125
5.24,1685087700.328125
10.68,1685087700.34375
15.21,1685087700.359375
18.36,1685087700.375
19.97,1685087700.390625
20.17,1685087700.40625
19.30,1685087700.421875
17.81,1685087700.4375
16.08,1685087700.453125
14.33,1685087700.46875
12.65,1685087700.484375
11.01,1685087700.5
9.39,1685087700.515625
7.83,1685087700.53125
6.42,1685087700.546875
5.32,1685087700.5625
4.61,1685087700.578125
4.27,1685087700.59375
4.20,1685087700.609375
4.22,1685087700.625
4.17,1685087700.640625
3.92,1685087700.65625
3.45,1685087700.671875
2.84,1685087700.6875
2.25,1685087700.703125
1.75,1685087700.71875
1.29,1685087700.734375
0.64,1685087700.75
-0.44,1685087700.765625
-2.14,1685087700.78125
-4.49,1685087700.796875
-7.32,1685087700.8125
-10.36,1685087700.828125
-13.33,1685087700.84375
-16.04,1685087700.859375
-18.47,1685087700.875
-20.72,1685087700.890625
-22.96,1685087700.90625
-25.42,1685087700.921875
-28.32,1685087700.9375
-31.85,1685087700.953125
-36.03,1685087700.96875
-40.54,1685087700.984375
-44.77,1685087701.0
-47.74,1685087701.015625
-48.45,1685087701.03125
-46.12,1685087701.046875
-40.53,1685087701.0625
-32.10,1685087701.078125
-21.75,1685087701.09375
-10.67,1685087701.109375
0.10,1685087701.125
9.85,1685087701.140625
18.30,1685087701.15625
25.47,1685087701.171875
31.44,1685087701.1875
36.20,1685087701.203125
39.64,1685087701.21875
41.65,1685087701.234375
42.27,1685087701.25
41.72,1685087701.265625
40.40,1685087701.28125
38.70,1685087701.296875
36.91,1685087701.3125
35.11,1685087701.328125
33.26,1685087701.34375
31.28,1685087701.359375
29.18,1685087701.375
27.04,1685087701.390625
24.95,1685087701.40625
22.99,1685087701.421875
21.14,1685087701.4375
19.33,1685087701.453125
17.49,1685087701.46875
15.57,1685087701.484375
13.47,1685087701.5
11.12,1685087701.515625
8.38,1685087701.53125
5.18,1685087701.546875
1.50,1685087701.5625
-2.55,1685087701.578125
-6.77,1685087701.59375
-10.94,1685087701.609375
-14.91,1685087701.625
-18.65,1685087701.640625
-22.28,1685087701.65625
-25.99,1685087701.671875
-30.00,1685087701.6875
-34.45,1685087701.703125
-39.31,1685087701.71875
-44.33,1685087701.734375
-48.97,1685087701.75
-52.50,1685087701.765625
-54.05,1685087701.78125
-52.88,1685087701.796875
-48.58,1685087701.8125
-41.26,1685087701.828125
-31.62,1685087701.84375
-20.74,1685087701.859375
-9.82,1685087701.875
0.20,1685087701.890625
8.83,1685087701.90625
15.98,1685087701.921875
21.84,1685087701.9375
26.61,1685087701.953125
30.35,1685087701.96875
33.01,1685087701.984375
34.55,1685087702.0
35.02,1685087702.015625
34.65,1685087702.03125
33.77,1685087702.046875
32.66,1685087702.0625
31.51,1685087702.078125
30.37,1685087702.09375
29.21,1685087702.109375
28.01,1685087702.125
26.80,1685087702.140625
25.59,1685087702.15625
24.42,1685087702.171875
23.23,1685087702.1875
21.94,1685087702.203125
20.45,1685087702.21875
18.68,1685087702.234375
16.59,1685087702.25
14.13,1685087702.265625
11.28,1685087702.28125
8.03,1685087702.296875
4.41,1685087702.3125
0.55,1685087702.328125
-3.37,1685087702.34375
-7.17,1685087702.359375
-10.72,1685087702.375
-14.04,1685087702.390625
-17.24,1685087702.40625
-20.54,1685087702.421875
-24.16,1685087702.4375
-28.26,1685087702.453125
-32.89,1685087702.46875
-37.90,1685087702.484375
-42.83,1685087702.5
-46.98,1685087702.515625
-49.49,1685087702.53125
-49.51,1685087702.546875
-46.54,1685087702.5625
-40.59,1685087702.578125
-32.20,1685087702.59375
-22.33,1685087702.609375
-12.04,1685087702.625
-2.22,1685087702.640625
6.56,1685087702.65625
14.04,1685087702.671875
20.22,1685087702.6875
25.10,1685087702.703125
28.68,1685087702.71875
30.89,1685087702.734375
31.73,1685087702.75
31.37,1685087702.765625
30.17,1685087702.78125
28.60,1685087702.796875
27.11,1685087702.8125
25.93,1685087702.828125
25.03,1685087702.84375
24.16,1685087702.859375
23.04,1685087702.875
21.50,1685087702.890625
19.60,1685087702.90625
17.54,1685087702.921875
15.61,1685087702.9375
13.97,1685087702.953125
12.58,1685087702.96875
11.21,1685087702.984375
9.54,1685087703.0
7.30,1685087703.015625
4.44,1685087703.03125
1.09,1685087703.046875
-2.47,1685087703.0625
-5.94,1685087703.078125
-9.17,1685087703.09375
-12.14,1685087703.109375
-14.92,1685087703.125
-17.68,1685087703.140625
-20.59,1685087703.15625
-23.80,1685087703.171875
-27.49,1685087703.1875
-31.76,1685087703.203125
-36.57,1685087703.21875
-41.53,1685087703.234375
-45.94,1685087703.25
-48.84,1685087703.265625
-49.31,1685087703.28125
-46.81,1685087703.296875
-41.32,1685087703.3125
-33.42,1685087703.328125
-24.04,1685087703.34375
-14.18,1685087703.359375
-4.67,1685087703.375
3.98,1685087703.390625
11.57,1685087703.40625
17.98,1685087703.421875
23.15,1685087703.4375
26.94,1685087703.453125
29.25,1685087703.46875
30.07,1685087703.484375
29.62,1685087703.5
28.31,1685087703.515625
26.65,1685087703.53125
25.12,1685087703.546875
23.96,1685087703.5625
23.16,1685087703.578125
22.53,1685087703.59375
21.86,1685087703.609375
20.99,1685087703.625
19.97,1685087703.640625
18.89,1685087703.65625
17.85,1685087703.671875
16.81,1685087703.6875
15.63,1685087703.703125
14.13,1685087703.71875
12.14,1685087703.734375
9.59,1685087703.75
6.48,1685087703.765625
2.92,1685087703.78125
-0.93,1685087703.796875
-4.84,1685087703.8125
-8.58,1685087703.828125
-11.95,1685087703.84375
-14.91,1685087703.859375
-17.58,1685087703.875
-20.26,1685087703.890625
-23.34,1685087703.90625
-27.19,1685087703.921875
-31.97,1685087703.9375
-37.58,1685087703.953125
-43.56,1685087703.96875
-49.11,1685087703.984375
-53.26,1685087704.0
-55.06,1685087704.015625
-53.83,1685087704.03125
-49.38,1685087704.046875
-42.05,1685087704.0625
-32.63,1685087704.078125
-22.15,1685087704.09375
-11.57,1685087704.109375
-1.67,1685087704.125
7.07,1685087704.140625
14.45,1685087704.15625
20.39,1685087704.171875
24.91,1685087704.1875
28.07,1685087704.203125
30.00,1685087704.21875
30.90,1685087704.234375
31.08,1685087704.25
30.83,1685087704.265625
30.42,1685087704.28125
29.98,1685087704.296875
29.46,1685087704.3125
28.70,1685087704.328125
27.58,1685087704.34375
26.06,1685087704.359375
24.28,1685087704.375
22.46,1685087704.390625
20.84,1685087704.40625
19.48,1685087704.421875
18.34,1685087704.4375
17.21,1685087704.453125
15.87,1685087704.46875
14.12,1685087704.484375
11.86,1685087704.5
9.06,1685087704.515625
5.78,1685087704.53125
2.12,1685087704.546875
-1.80,1685087704.5625
-5.82,1685087704.578125
-9.79,1685087704.59375
-13.61,1685087704.609375
-17.23,1685087704.625
-20.72,1685087704.640625
-24.25,1685087704.65625
-28.02,1685087704.671875
-32.29,1685087704.6875
-37.14,1685087704.703125
-42.38,1685087704.71875
-47.41,1685087704.734375
-51.30,1685087704.75
-52.99,1685087704.765625
-51.70,1685087704.78125
-47.18,1685087704.796875
-39.87,1685087704.8125
-30.71,1685087704.828125
-20.77,1685087704.84375
-10.98,1685087704.859375
-1.88,1685087704.875
6.25,1685087704.890625
13.32,1685087704.90625
19.25,1685087704.921875
23.97,1685087704.9375
27.45,1685087704.953125
29.77,1685087704.96875
31.15,1685087704.984375
31.83,1685087705.0
32.04,1685087705.015625
31.94,1685087705.03125
31.62,1685087705.046875
31.10,1685087705.0625
30.39,1685087705.078125
29.49,1685087705.09375
28.39,1685087705.109375
27.11,1685087705.125
25.66,1685087705.140625
24.11,1685087705.15625
22.50,1685087705.171875
20.87,1685087705.1875
19.18,1685087705.203125
17.35,1685087705.21875
15.27,1685087705.234375
12.87,1685087705.25
10.12,1685087705.265625
7.03,1685087705.28125
3.71,1685087705.296875
0.25,1685087705.3125
-3.28,1685087705.328125
-6.86,1685087705.34375
-10.54,1685087705.359375
-14.38,1685087705.375
-18.41,1685087705.390625
-22.61,1685087705.40625
-26.94,1685087705.421875
-31.41,1685087705.4375
-36.12,1685087705.453125
-41.09,1685087705.46875
-46.13,1685087705.484375
-50.67,1685087705.5
-53.80,1685087705.515625
-54.52,1685087705.53125
-52.12,1685087705.546875
-46.53,1685087705.5625
-38.32,1685087705.578125
-28.54,1685087705.59375
-18.33,1685087705.609375
-8.50,1685087705.625
0.49,1685087705.640625
8.55,1685087705.65625
15.66,1685087705.671875
21.73,1685087705.6875
26.53,1685087705.703125
29.87,1685087705.71875
31.66,1685087705.734375
32.10,1685087705.75
31.56,1685087705.765625
30.50,1685087705.78125
29.31,1685087705.796875
28.17,1685087705.8125
27.16,1685087705.828125
26.21,1685087705.84375
25.27,1685087705.859375
24.31,1685087705.875
23.36,1685087705.890625
22.47,1685087705.90625
21.64,1685087705.921875
20.86,1685087705.9375
20.03,1685087705.953125
19.03,1685087705.96875
17.71,1685087705.984375
15.92,1685087706.0
13.53,1685087706.015625
10.54,1685087706.03125
7.06,1685087706.046875
3.32,1685087706.0625
-0.44,1685087706.078125
-4.01,1685087706.09375
-7.37,1685087706.109375
-10.61,1685087706.125
-13.93,1685087706.140625
-17.51,1685087706.15625
-21.43,1685087706.171875
-25.70,1685087706.1875
-30.30,1685087706.203125
-35.20,1685087706.21875
-40.25,1685087706.234375
-45.08,1685087706.25
-49.05,1685087706.265625
-51.33,1685087706.28125
-51.09,1685087706.296875
-47.88,1685087706.3125
-41.78,1685087706.328125
-33.43,1685087706.34375
-23.84,1685087706.359375
-14.01,1685087706.375
-4.75,1685087706.390625
3.50,1685087706.40625
10.57,1685087706.421875
16.39,1685087706.4375
20.98,1685087706.453125
24.31,1685087706.46875
26.43,1685087706.484375
27.46,1685087706.5
27.60,1685087706.515625
27.14,1685087706.53125
26.34,1685087706.546875
25.44,1685087706.5625
24.55,1685087706.578125
23.71,1685087706.59375
22.86,1685087706.609375
21.95,1685087706.625
20.98,1685087706.640625
19.95,1685087706.65625
18.90,1685087706.671875
17.81,1685087706.6875
16.60,1685087706.703125
15.12,1685087706.71875
13.24,1685087706.734375
10.85,1685087706.75
7.93,1685087706.765625
4.54,1685087706.78125
0.79,1685087706.796875
-3.17,1685087706.8125
-7.14,1685087706.828125
-10.91,1685087706.84375
-14.34,1685087706.859375
-17.40,1685087706.875
-20.25,1685087706.890625
-23.16,1685087706.90625
-26.45,1685087706.921875
-30.40,1685087706.9375
-35.06,1685087706.953125
-40.29,1685087706.96875
-45.65,1685087706.984375
-50.50,1685087707.0
-54.04,1685087707.015625
-55.46,1685087707.03125
-54.17,1685087707.046875
-49.93,1685087707.0625
-42.98,1685087707.078125
-33.97,1685087707.09375
-23.83,1685087707.109375
-13.50,1685087707.125
-3.72,1685087707.140625
5.06,1685087707.15625
12.70,1685087707.171875
19.18,1685087707.1875
24.52,1685087707.203125
28.68,1685087707.21875
31.58,1685087707.234375
33.14,1685087707.25
33.43,1685087707.265625
32.71,1685087707.28125
31.41,1685087707.296875
29.97,1685087707.3125
28.71,1685087707.328125
27.72,1685087707.34375
26.88,1685087707.359375
25.99,1685087707.375
24.88,1685087707.390625
23.50,1685087707.40625
21.95,1685087707.421875
20.41,1685087707.4375
18.98,1685087707.453125
17.63,1685087707.46875
16.19,1685087707.484375
14.41,1685087707.5
12.04,1685087707.515625
8.96,1685087707.53125
5.23,1685087707.546875
1.06,1685087707.5625
-3.23,1685087707.578125
-7.39,1685087707.59375
-11.27,1685087707.609375
-14.92,1685087707.625
-18.54,1685087707.640625
-22.39,1685087707.65625
-26.68,1685087707.671875
-31.54,1685087707.6875
-36.94,1685087707.703125
-42.71,1685087707.71875
-48.44,1685087707.734375
-53.48,1685087707.75
-57.03,1685087707.765625
-58.25,1685087707.78125
-56.53,1685087707.796875
-51.69,1685087707.8125
-44.04,1685087707.828125
-34.32,1685087707.84375
-23.47,1685087707.859375
-12.41,1685087707.875
-1.84,1685087707.890625
7.81,1685087707.90625
16.28,1685087707.921875
23.44,1685087707.9375
29.19,1685087707.953125
33.50,1685087707.96875
36.39,1685087707.984375
38.00,1685087708.0
38.56,1685087708.015625
38.37,1685087708.03125
37.70,1685087708.046875
36.75,1685087708.0625
35.63,1685087708.078125
34.34,1685087708.09375
32.87,1685087708.109375
31.23,1685087708.125
29.48,1685087708.140625
27.73,1685087708.15625
26.07,1685087708.171875
24.50,1685087708.1875
22.96,1685087708.203125
21.28,1685087708.21875
19.29,1685087708.234375
16.79,1685087708.25
13.72,1685087708.265625
10.13,1685087708.28125
6.20,1685087708.296875
2.18,1685087708.3125
-1.73,1685087708.328125
-5.40,1685087708.34375
-8.89,1685087708.359375
-12.37,1685087708.375
-16.04,1685087708.390625
-20.07,1685087708.40625
-24.57,1685087708.421875
-29.56,1685087708.4375
-35.01,1685087708.453125
-40.72,1685087708.46875
-46.32,1685087708.484375
-51.18,1685087708.5
-54.45,1685087708.515625
-55.32,1685087708.53125
-53.22,1685087708.546875
-48.03,1685087708.5625
-40.17,1685087708.578125
-30.42,1685087708.59375
-19.73,1685087708.609375
-8.93,1685087708.625
1.31,1685087708.640625
10.59,1685087708.65625
18.62,1685087708.671875
25.21,1685087708.6875
30.26,1685087708.703125
33.73,1685087708.71875
35.77,1685087708.734375
36.61,1685087708.75
36.60,1685087708.765625
36.11,1685087708.78125
35.42,1685087708.796875
34.72,1685087708.8125
33.99,1685087708.828125
33.15,1685087708.84375
32.08,1685087708.859375
30.77,1685087708.875
29.26,1685087708.890625
27.68,1685087708.90625
26.09,1685087708.921875
24.47,1685087708.9375
22.69,1685087708.953125
20.59,1685087708.96875
18.09,1685087708.984375
15.19,1685087709.0
11.96,1685087709.015625
8.49,1685087709.03125
4.81,1685087709.046875
0.91,1685087709.0625
-3.17,1685087709.078125
-7.32,1685087709.09375
-11.39,1685087709.109375
-15.26,1685087709.125
-18.95,1685087709.140625
-22.65,1685087709.15625
-26.69,1685087709.171875
-31.34,1685087709.1875
-36.67,1685087709.203125
-42.38,1685087709.21875
-47.84,1685087709.234375
-52.16,1685087709.25
-54.51,1685087709.265625
-54.23,1685087709.28125
-51.04,1685087709.296875
-45.07,1685087709.3125
-36.76,1685087709.328125
-26.79,1685087709.34375
-15.95,1685087709.359375
-5.04,1685087709.375
5.19,1685087709.390625
14.15,1685087709.40625
21.49,1685087709.421875
27.11,1685087709.4375
31.15,1685087709.453125
33.90,1685087709.46875
35.69,1685087709.484375
36.81,1685087709.5
37.39,1685087709.515625
37.53,1685087709.53125
37.23,1685087709.546875
36.50,1685087709.5625
35.38,1685087709.578125
33.94,1685087709.59375
32.28,1685087709.609375
30.54,1685087709.625
28.82,1685087709.640625
27.20,1685087709.65625
25.67,1685087709.671875
24.20,1685087709.6875
22.67,1685087709.703125
20.98,1685087709.71875
19.04,1685087709.734375
16.75,1685087709.75
14.08,1685087709.765625
11.00,1685087709.78125
7.56,1685087709.796875
3.85,1685087709.8125
0.03,1685087709.828125
-3.75,1685087709.84375
-7.39,1685087709.859375
-10.88,1685087709.875
-14.30,1685087709.890625
-17.84,1685087709.90625
-21.69,1685087709.921875
-26.01,1685087709.9375
-30.79,1685087709.953125
-35.81,1685087709.96875
-40.58,1685087709.984375
-44.36,1685087710.0
-46.38,1685087710.015625
-45.96,1685087710.03125
-42.77,1685087710.046875
-36.92,1685087710.0625
-28.93,1685087710.078125
-19.61,1685087710.09375
-9.77,1685087710.109375
-0.15,1685087710.125
8.67,1685087710.140625
16.26,1685087710.15625
22.36,1685087710.171875
26.85,1685087710.1875
29.81,1685087710.203125
31.47,1685087710.21875
32.13,1685087710.234375
32.07,1685087710.25
31.52,1685087710.265625
30.59,1685087710.28125
29.36,1685087710.296875
27.91,1685087710.3125
26.38,1685087710.328125
24.90,1685087710.34375
23.55,1685087710.359375
22.33,1685087710.375
21.11,1685087710.390625
19.80,1685087710.40625
18.27,1685087710.421875
16.54,1685087710.4375
14.63,1685087710.453125
12.59,1685087710.46875
10.40,1685087710.484375
7.98,1685087710.5
5.25,1685087710.515625
2.16,1685087710.53125
-1.25,1685087710.546875
-4.80,1685087710.5625
-8.31,1685087710.578125
-11.62,1685087710.59375
-14.73,1685087710.609375
-17.81,1685087710.625
-21.18,1685087710.640625
-25.10,1685087710.65625
-29.69,1685087710.671875
-34.74,1685087710.6875
-39.76,1685087710.703125
-43.97,1685087710.71875
-46.54,1685087710.734375
-46.73,1685087710.75
-44.14,1685087710.765625
-38.82,1685087710.78125
-31.27,1685087710.796875
-22.31,1685087710.8125
-12.84,1685087710.828125
-3.63,1685087710.84375
4.81,1685087710.859375
12.26,1685087710.875
18.64,1685087710.890625
23.88,1685087710.90625
27.91,1685087710.921875
30.60,1685087710.9375
31.95,1685087710.953125
32.08,1685087710.96875
31.31,1685087710.984375
30.04,1685087711.0
28.64,1685087711.015625
27.37,1685087711.03125
26.25,1685087711.046875
25.20,1685087711.0625
24.01,1685087711.078125
22.53,1685087711.09375
20.76,1685087711.109375
18.83,1685087711.125
16.97,1685087711.140625
15.34,1685087711.15625
13.97,1685087711.171875
12.67,1685087711.1875
11.15,1685087711.203125
9.12,1685087711.21875
6.43,1685087711.234375
3.09,1685087711.25
-0.79,1685087711.265625
-5.04,1685087711.28125
-9.48,1685087711.296875
-13.93,1685087711.3125
-18.21,1685087711.328125
-22.19,1685087711.34375
-25.88,1685087711.359375
-29.49,1685087711.375
-33.35,1685087711.390625
-37.79,1685087711.40625
-42.82,1685087711.421875
-48.03,1685087711.4375
-52.58,1685087711.453125
-55.41,1685087711.46875
-55.65,1685087711.484375
-52.84,1685087711.5
-47.09,1685087711.515625
-38.96,1685087711.53125
-29.25,1685087711.546875
-18.77,1685087711.5625
-8.23,1685087711.578125
1.82,1685087711.59375
10.94,1685087711.609375
18.81,1685087711.625
25.18,1685087711.640625
29.90,1685087711.65625
32.94,1685087711.671875
34.42,1685087711.6875
34.66,1685087711.703125
34.02,1685087711.71875
32.91,1685087711.734375
31.70,1685087711.75
30.62,1685087711.765625
29.77,1685087711.78125
29.11,1685087711.796875
28.52,1685087711.8125
27.83,1685087711.828125
26.85,1685087711.84375
25.49,1685087711.859375
23.73,1685087711.875
21.70,1685087711.890625
19.60,1685087711.90625
17.59,1685087711.921875
15.71,1685087711.9375
13.82,1685087711.953125
11.62,1685087711.96875
8.83,1685087711.984375
5.31,1685087712.0
1.16,1685087712.015625
-3.28,1685087712.03125
-7.60,1685087712.046875
-11.55,1685087712.0625
-15.05,1685087712.078125
-18.28,1685087712.09375
-21.56,1685087712.109375
-25.19,1685087712.125
-29.37,1685087712.140625
-34.16,1685087712.15625
-39.41,1685087712.171875
-44.78,1685087712.1875
-49.72,1685087712.203125
-53.49,1685087712.21875
-55.26,1685087712.234375
-54.31,1685087712.25
-50.27,1685087712.265625
-43.24,1685087712.28125
-33.89,1685087712.296875
-23.25,1685087712.3125
-12.43,1685087712.328125
-2.30,1685087712.34375
6.65,1685087712.359375
14.27,1685087712.375
20.61,1685087712.390625
25.74,1685087712.40625
29.67,1685087712.421875
32.39,1685087712.4375
33.96,1685087712.453125
34.60,1685087712.46875
34.59,1685087712.484375
34.24,1685087712.5
33.70,1685087712.515625
33.00,1685087712.53125
32.04,1685087712.546875
30.77,1685087712.5625
29.20,1685087712.578125
27.47,1685087712.59375
25.70,1685087712.609375
23.99,1685087712.625
22.31,1685087712.640625
20.64,1685087712.65625
18.92,1685087712.671875
17.13,1685087712.6875
15.26,1685087712.703125
13.20,1685087712.71875
10.85,1685087712.734375
8.08,1685087712.75
4.81,1685087712.765625
1.14,1685087712.78125
-2.76,1685087712.796875
-6.65,1685087712.8125
-10.37,1685087712.828125
-13.87,1685087712.84375
-17.26,1685087712.859375
-20.72,1685087712.875
-24.42,1685087712.890625
-28.48,1685087712.90625
-32.95,1685087712.921875
-37.74,1685087712.9375
-42.70,1685087712.953125
-47.47,1685087712.96875
-51.53,1685087712.984375
-54.15,1685087713.0
-54.51,1685087713.015625
-52.02,1685087713.03125
-46.44,1685087713.046875
-38.16,1685087713.0625
-28.06,1685087713.078125
-17.26,1685087713.09375
-6.85,1685087713.109375
2.45,1685087713.125
10.28,1685087713.140625
16.62,1685087713.15625
21.54,1685087713.171875
25.16,1685087713.1875
27.63,1685087713.203125
29.12,1685087713.21875
29.97,1685087713.234375
30.48,1685087713.25
30.87,1685087713.265625
31.18,1685087713.28125
31.24,1685087713.296875
30.82,1685087713.3125
29.79,1685087713.328125
28.24,1685087713.34375
26.49,1685087713.359375
24.89,1685087713.375
23.70,1685087713.390625
22.87,1685087713.40625
22.17,1685087713.421875
21.24,1685087713.4375
19.83,1685087713.453125
17.88,1685087713.46875
15.47,1685087713.484375
12.77,1685087713.5
9.86,1685087713.515625
6.73,1685087713.53125
3.32,1685087713.546875
-0.33,1685087713.5625
-4.12,1685087713.578125
-7.83,1685087713.59375
-11.28,1685087713.609375
-14.38,1685087713.625
-17.20,1685087713.640625
-19.94,1685087713.65625
-22.85,1685087713.671875
-26.14,1685087713.6875
-29.99,1685087713.703125
-34.44,1685087713.71875
-39.35,1685087713.734375
-44.31,1685087713.75
-48.67,1685087713.765625
-51.57,1685087713.78125
-52.19,1685087713.796875
-49.97,1685087713.8125
-44.82,1685087713.828125
-37.19,1685087713.84375
-27.93,1685087713.859375
-18.02,1685087713.875
-8.36,1685087713.890625
0.42,1685087713.90625
8.01,1685087713.921875
14.31,1685087713.9375
19.36,1685087713.953125
23.22,1685087713.96875
25.94,1685087713.984375
27.62,1685087714.0
28.40,1685087714.015625
28.52,1685087714.03125
28.22,1685087714.046875
27.76,1685087714.0625
27.28,1685087714.078125
26.78,1685087714.09375
26.18,1685087714.109375
25.37,1685087714.125
24.34,1685087714.140625
23.16,1685087714.15625
21.96,1685087714.171875
20.83,1685087714.1875
19.77,1685087714.203125
18.64,1685087714.21875
17.27,1685087714.234375
15.52,1685087714.25
13.37,1685087714.265625
10.88,1685087714.28125
8.15,1685087714.296875
5.26,1685087714.3125
2.21,1685087714.328125
-0.99,1685087714.34375
-4.29,1685087714.359375
-7.58,1685087714.375
-10.68,1685087714.390625
-13.48,1685087714.40625
-15.98,1685087714.421875
-18.38,1685087714.4375
-21.00,1685087714.453125
-24.16,1685087714.46875
-28.04,1685087714.484375
-32.63,1685087714.5
-37.62,1685087714.515625
-42.46,1685087714.53125
-46.47,1685087714.546875
-48.89,1685087714.5625
-49.08,1685087714.578125
-46.68,1685087714.59375
-41.68,1685087714.609375
-34.48,1685087714.625
-25.83,1685087714.640625
-16.63,1685087714.65625
-7.71,1685087714.671875
0.39,1685087714.6875
7.43,1685087714.703125
13.41,1685087714.71875
18.40,1685087714.734375
22.39,1685087714.75
25.25,1685087714.765625
26.83,1685087714.78125
27.15,1685087714.796875
26.46,1685087714.8125
25.23,1685087714.828125
23.96,1685087714.84375
22.99,1685087714.859375
22.41,1685087714.875
22.10,1685087714.890625
21.85,1685087714.90625
21.48,1685087714.921875
20.92,1685087714.9375
20.16,1685087714.953125
19.21,1685087714.96875
18.07,1685087714.984375
16.71,1685087715.0
15.11,1685087715.015625
13.28,1685087715.03125
11.21,1685087715.046875
8.87,1685087715.0625
6.20,1685087715.078125
3.14,1685087715.09375
-0.37,1685087715.109375
-4.27,1685087715.125
-8.44,1685087715.140625
-12.67,1685087715.15625
-16.74,1685087715.171875
-20.46,1685087715.1875
-23.83,1685087715.203125
-27.03,1685087715.21875
-30.44,1685087715.234375
-34.42,1685087715.25
-39.13,1685087715.265625
-44.31,1685087715.28125
-49.21,1685087715.296875
-52.86,1685087715.3125
-54.24,1685087715.328125
-52.71,1685087715.34375
-48.13,1685087715.359375
-40.91,1685087715.375
-31.82,1685087715.390625
-21.83,1685087715.40625
-11.82,1685087715.421875
-2.49,1685087715.4375
5.72,1685087715.453125
12.59,1685087715.46875
18.08,1685087715.484375
22.24,1685087715.5
25.20,1685087715.515625
27.15,1685087715.53125
28.27,1685087715.546875
28.77,1685087715.5625
28.86,1685087715.578125
28.73,1685087715.59375
28.49,1685087715.609375
28.13,1685087715.625
27.55,1685087715.640625
26.68,1685087715.65625
25.44,1685087715.671875
23.90,1685087715.6875
22.27,1685087715.703125
20.75,1685087715.71875
19.49,1685087715.734375
18.44,1685087715.75
17.38,1685087715.765625
15.94,1685087715.78125
13.82,1685087715.796875
10.87,1685087715.8125
7.17,1685087715.828125
2.99,1685087715.84375
-1.32,1685087715.859375
-5.46,1685087715.875
-9.29,1685087715.890625
-12.81,1685087715.90625
-16.14,1685087715.921875
-19.45,1685087715.9375
-22.89,1685087715.953125
-26.61,1685087715.96875
-30.75,1685087715.984375
-35.44,1685087716.0
-40.68,1685087716.015625
-46.23,1685087716.03125
-51.54,1685087716.046875
-55.78,1685087716.0625
-57.96,1685087716.078125
-57.23,1685087716.09375
-53.16,1685087716.109375
-45.96,1685087716.125
-36.36,1685087716.140625
-25.48,1685087716.15625
-14.40,1685087716.171875
-3.97,1685087716.1875
5.37,1685087716.203125
13.55,1685087716.21875
20.61,1685087716.234375
26.58,1685087716.25
31.37,1685087716.265625
34.82,1685087716.28125
36.84,1685087716.296875
37.52,1685087716.3125
37.19,1685087716.328125
36.30,1685087716.34375
35.28,1685087716.359375
34.35,1685087716.375
33.50,1685087716.390625
32.60,1685087716.40625
31.46,1685087716.421875
30.02,1685087716.4375
28.39,1685087716.453125
26.75,1685087716.46875
25.28,1685087716.484375
24.01,1685087716.5
22.85,1685087716.515625
21.61,1685087716.53125
20.08,1685087716.546875
18.04,1685087716.5625
15.40,1685087716.578125
12.12,1685087716.59375
8.31,1685087716.609375
4.15,1685087716.625
-0.11,1685087716.640625
-4.23,1685087716.65625
-8.05,1685087716.671875
-11.59,1685087716.6875
-15.00,1685087716.703125
-18.54,1685087716.71875
-22.46,1685087716.734375
-26.92,1685087716.75
-31.96,1685087716.765625
-37.37,1685087716.78125
-42.74,1685087716.796875
-47.40,1685087716.8125
-50.55,1685087716.828125
-51.40,1685087716.84375
-49.41,1685087716.859375
-44.43,1685087716.875
-36.81,1685087716.890625
-27.29,1685087716.90625
-16.80,1685087716.921875
-6.20,1685087716.9375
3.81,1685087716.953125
12.78,1685087716.96875
20.38,1685087716.984375
26.43,1685087717.0
30.81,1685087717.015625
33.54,1685087717.03125
34.81,1685087717.046875
34.95,1685087717.0625
34.39,1685087717.078125
33.53,1685087717.09375
32.66,1685087717.109375
31.88,1685087717.125
31.20,1685087717.140625
30.52,1685087717.15625
29.77,1685087717.171875
28.91,1685087717.1875
27.97,1685087717.203125
27.05,1685087717.21875
26.24,1685087717.234375
25.57,1685087717.25
25.01,1685087717.265625
24.35,1685087717.28125
23.32,1685087717.296875
21.62,1685087717.3125
19.15,1685087717.328125
16.03,1685087717.34375
12.61,1685087717.359375
9.30,1685087717.375
6.43,1685087717.390625
4.09,1685087717.40625
2.14,1685087717.421875
0.27,1685087717.4375
-1.85,1685087717.453125
-4.45,1685087717.46875
-7.63,1685087717.484375
-11.26,1685087717.5
-14.99,1685087717.515625
-18.23,1685087717.53125
-20.16,1685087717.546875
-19.93,1685087717.5625
-16.82,1685087717.578125
-10.51,1685087717.59375
-1.29,1685087717.609375
9.98,1685087717.625
22.05,1685087717.640625
33.62,1685087717.65625
43.69,1685087717.671875
51.71,1685087717.6875
57.65,1685087717.703125
61.75,1685087717.71875
64.26,1685087717.734375
65.25,1685087717.75
64.65,1685087717.765625
62.43,1685087717.78125
58.74,1685087717.796875
54.09,1685087717.8125
49.19,1685087717.828125
44.71,1685087717.84375
40.95,1685087717.859375
37.70,1685087717.875
34.31,1685087717.890625
29.99,1685087717.90625
24.17,1685087717.921875
16.73,1685087717.9375
8.04,1685087717.953125
-1.22,1685087717.96875
-10.35,1685087717.984375
-18.85,1685087718.0
-26.56,1685087718.015625
-33.63,1685087718.03125
-40.32,1685087718.046875
-46.78,1685087718.0625
-53.02,1685087718.078125
-58.82,1685087718.09375
-63.98,1685087718.109375
-68.38,1685087718.125
-72.17,1685087718.140625
-75.69,1685087718.15625
-79.36,1685087718.171875
-83.55,1685087718.1875
-88.48,1685087718.203125
-94.22,1685087718.21875
-100.67,1685087718.234375
-107.61,1685087718.25
-114.59,1685087718.265625
-120.73,1685087718.28125
-124.80,1685087718.296875
-125.31,1685087718.3125
-121.04,1685087718.328125
-111.48,1685087718.34375
-97.13,1685087718.359375
-79.45,1685087718.375
-60.47,1685087718.390625
-42.10,1685087718.40625
-25.69,1685087718.421875
-11.81,1685087718.4375
-0.43,1685087718.453125
8.77,1685087718.46875
16.05,1685087718.484375
21.61,1685087718.5
25.53,1685087718.515625
28.05,1685087718.53125
29.60,1685087718.546875
30.67,1685087718.5625
31.72,1685087718.578125
32.91,1685087718.59375
34.15,1685087718.609375
35.14,1685087718.625
35.61,1685087718.640625
35.42,1685087718.65625
34.63,1685087718.671875
33.49,1685087718.6875
32.25,1685087718.703125
31.02,1685087718.71875
29.70,1685087718.734375
28.03,1685087718.75
25.72,1685087718.765625
22.60,1685087718.78125
18.74,1685087718.796875
14.39,1685087718.8125
9.91,1685087718.828125
5.58,1685087718.84375
1.46,1685087718.859375
-2.61,1685087718.875
-6.97,1685087718.890625
-11.95,1685087718.90625
-17.78,1685087718.921875
-24.46,1685087718.9375
-31.71,1685087718.953125
-38.89,1685087718.96875
-45.10,1685087718.984375
-49.24,1685087719.0
-50.30,1685087719.015625
-47.65,1685087719.03125
-41.24,1685087719.046875
-31.71,1685087719.0625
-20.17,1685087719.078125
-7.91,1685087719.09375
3.97,1685087719.109375
14.76,1685087719.125
24.13,1685087719.140625
32.06,1685087719.15625
38.56,1685087719.171875
43.60,1685087719.1875
47.08,1685087719.203125
48.95,1685087719.21875
49.36,1685087719.234375
48.69,1685087719.25
47.46,1685087719.265625
46.12,1685087719.28125
44.98,1685087719.296875
44.02,1685087719.3125
43.08,1685087719.328125
41.91,1685087719.34375
40.32,1685087719.359375
38.33,1685087719.375
36.12,1685087719.390625
33.96,1685087719.40625
32.01,1685087719.421875
30.28,1685087719.4375
28.55,1685087719.453125
26.52,1685087719.46875
23.88,1685087719.484375
20.51,1685087719.5
16.45,1685087719.515625
11.93,1685087719.53125
7.21,1685087719.546875
2.55,1685087719.5625
-1.89,1685087719.578125
-6.10,1685087719.59375
-10.20,1685087719.609375
-14.41,1685087719.625
-19.02,1685087719.640625
-24.31,1685087719.65625
-30.41,1685087719.671875
-37.16,1685087719.6875
-44.00,1685087719.703125
-49.94,1685087719.71875
-53.78,1685087719.734375
-54.42,1685087719.75
-51.19,1685087719.765625
-44.12,1685087719.78125
-33.96,1685087719.796875
-21.93,1685087719.8125
-9.33,1685087719.828125
2.74,1685087719.84375
13.63,1685087719.859375
23.02,1685087719.875
30.76,1685087719.890625
36.76,1685087719.90625
40.90,1685087719.921875
43.15,1685087719.9375
43.67,1685087719.953125
42.85,1685087719.96875
41.20,1685087719.984375
39.20,1685087720.0
37.16,1685087720.015625
35.19,1685087720.03125
33.25,1685087720.046875
31.26,1685087720.0625
29.19,1685087720.078125
27.07,1685087720.09375
25.01,1685087720.109375
23.08,1685087720.125
21.33,1685087720.140625
19.69,1685087720.15625
18.05,1685087720.171875
16.23,1685087720.1875
14.00,1685087720.203125
11.19,1685087720.21875
7.69,1685087720.234375
3.55,1685087720.25
-1.03,1685087720.265625
-5.74,1685087720.28125
-10.24,1685087720.296875
-14.30,1685087720.3125
-17.93,1685087720.328125
-21.38,1685087720.34375
-25.13,1685087720.359375
-29.61,1685087720.375
-35.09,1685087720.390625
-41.47,1685087720.40625
-48.16,1685087720.421875
-54.18,1685087720.4375
-58.31,1685087720.453125
-59.47,1685087720.46875
-56.97,1685087720.484375
-50.70,1685087720.5
-41.25,1685087720.515625
-29.63,1685087720.53125
-17.08,1685087720.546875
-4.73,1685087720.5625
6.61,1685087720.578125
16.41,1685087720.59375
24.44,1685087720.609375
30.62,1685087720.625
34.93,1685087720.640625
37.48,1685087720.65625
38.45,1685087720.671875
38.17,1685087720.6875
37.08,1685087720.703125
35.64,1685087720.71875
34.21,1685087720.734375
32.95,1685087720.75
31.81,1685087720.765625
30.58,1685087720.78125
29.02,1685087720.796875
26.97,1685087720.8125
24.51,1685087720.828125
21.89,1685087720.84375
19.48,1685087720.859375
17.56,1685087720.875
16.14,1685087720.890625
14.95,1685087720.90625
13.49,1685087720.921875
11.30,1685087720.9375
8.09,1685087720.953125
3.93,1685087720.96875
-0.84,1685087720.984375
-5.76,1685087721.0
-10.40,1685087721.015625
-14.57,1685087721.03125
-18.35,1685087721.046875
-22.01,1685087721.0625
-25.87,1685087721.078125
-30.27,1685087721.09375
-35.41,1685087721.109375
-41.29,1685087721.125
-47.67,1685087721.140625
-53.94,1685087721.15625
-59.20,1685087721.171875
-62.33,1685087721.1875
-62.30,1685087721.203125
-58.45,1685087721.21875
-50.73,1685087721.234375
-39.83,1685087721.25
-26.90,1685087721.265625
-13.35,1685087721.28125
-0.37,1685087721.296875
11.21,1685087721.3125
21.02,1685087721.328125
29.01,1685087721.34375
35.24,1685087721.359375
39.78,1685087721.375
42.63,1685087721.390625
43.86,1685087721.40625
43.65,1685087721.421875
42.39,1685087721.4375
40.59,1685087721.453125
38.73,1685087721.46875
37.15,1685087721.484375
35.88,1685087721.5
34.76,1685087721.515625
33.53,1685087721.53125
32.04,1685087721.546875
30.27,1685087721.5625
28.36,1685087721.578125
26.46,1685087721.59375
24.57,1685087721.609375
22.63,1685087721.625
20.49,1685087721.640625
18.01,1685087721.65625
15.16,1685087721.671875
11.94,1685087721.6875
8.40,1685087721.703125
4.57,1685087721.71875
0.49,1685087721.734375
-3.76,1685087721.75
-8.05,1685087721.765625
-12.29,1685087721.78125
-16.47,1685087721.796875
-20.71,1685087721.8125
-25.21,1685087721.828125
-30.11,1685087721.84375
-35.46,1685087721.859375
-41.18,1685087721.875
-47.12,1685087721.890625
-52.97,1685087721.90625
-58.28,1685087721.921875
-62.34,1685087721.9375
-64.23,1685087721.953125
-63.01,1685087721.96875
-58.06,1685087721.984375
-49.35,1685087722.0
-37.61,1685087722.015625
-24.11,1685087722.03125
-10.33,1685087722.046875
2.49,1685087722.0625
13.61,1685087722.078125
22.80,1685087722.09375
30.14,1685087722.109375
35.80,1685087722.125
39.88,1685087722.140625
42.42,1685087722.15625
43.53,1685087722.171875
43.42,1685087722.1875
42.44,1685087722.203125
41.02,1685087722.21875
39.51,1685087722.234375
38.10,1685087722.25
36.80,1685087722.265625
35.53,1685087722.28125
34.18,1685087722.296875
32.69,1685087722.3125
31.07,1685087722.328125
29.33,1685087722.34375
27.46,1685087722.359375
25.43,1685087722.375
23.20,1685087722.390625
20.76,1685087722.40625
18.10,1685087722.421875
15.24,1685087722.4375
12.12,1685087722.453125
8.70,1685087722.46875
4.93,1685087722.484375
0.84,1685087722.5
-3.42,1685087722.515625
-7.69,1685087722.53125
-11.81,1685087722.546875
-15.74,1685087722.5625
-19.50,1685087722.578125
-23.21,1685087722.59375
-27.00,1685087722.609375
-31.02,1685087722.625
-35.44,1685087722.640625
-40.44,1685087722.65625
-46.08,1685087722.671875
-52.11,1685087722.6875
-57.82,1685087722.703125
-62.10,1685087722.71875
-63.67,1685087722.734375
-61.53,1685087722.75
-55.36,1685087722.765625
-45.65,1685087722.78125
-33.53,1685087722.796875
-20.42,1685087722.8125
-7.60,1685087722.828125
4.03,1685087722.84375
14.01,1685087722.859375
22.16,1685087722.875
28.48,1685087722.890625
33.05,1685087722.90625
36.00,1685087722.921875
37.56,1685087722.9375
38.00,1685087722.953125
37.61,1685087722.96875
36.64,1685087722.984375
35.25,1685087723.0
33.60,1685087723.015625
31.83,1685087723.03125
30.10,1685087723.046875
28.55,1685087723.0625
27.28,1685087723.078125
26.32,1685087723.09375
25.60,1685087723.109375
24.92,1685087723.125
24.08,1685087723.140625
22.87,1685087723.15625
21.17,1685087723.171875
18.98,1685087723.1875
16.45,1685087723.203125
13.73,1685087723.21875
10.95,1685087723.234375
8.10,1685087723.25
5.08,1685087723.265625
1.75,1685087723.28125
-1.98,1685087723.296875
-6.08,1685087723.3125
-10.41,1685087723.328125
-14.74,1685087723.34375
-18.88,1685087723.359375
-22.72,1685087723.375
-26.28,1685087723.390625
-29.71,1685087723.40625
-33.27,1685087723.421875
-37.26,1685087723.4375
-41.87,1685087723.453125
-47.06,1685087723.46875
-52.39,1685087723.484375
-57.02,1685087723.5
-59.84,1685087723.515625
-59.75,1685087723.53125
-56.02,1685087723.546875
-48.55,1685087723.5625
-38.00,1685087723.578125
-25.56,1685087723.59375
-12.67,1685087723.609375
-0.57,1685087723.625
9.91,1685087723.640625
18.48,1685087723.65625
25.25,1685087723.671875
30.45,1685087723.6875
34.26,1685087723.703125
36.73,1685087723.71875
37.84,1685087723.734375
37.66,1685087723.75
36.45,1685087723.765625
34.65,1685087723.78125
32.73,1685087723.796875
31.05,1685087723.8125
29.74,1685087723.828125
28.69,1685087723.84375
27.71,1685087723.859375
26.64,1685087723.875
25.44,1685087723.890625
24.16,1685087723.90625
22.85,1685087723.921875
21.50,1685087723.9375
20.02,1685087723.953125
18.29,1685087723.96875
16.23,1685087723.984375
13.87,1685087724.0
11.24,1685087724.015625
8.38,1685087724.03125
5.23,1685087724.046875
1.76,1685087724.0625
-2.05,1685087724.078125
-6.08,1685087724.09375
-10.11,1685087724.109375
-13.91,1685087724.125
-17.35,1685087724.140625
-20.47,1685087724.15625
-23.47,1685087724.171875
-26.63,1685087724.1875
-30.18,1685087724.203125
-34.29,1685087724.21875
-38.95,1685087724.234375
-43.93,1685087724.25
-48.72,1685087724.265625
-52.51,1685087724.28125
-54.25,1685087724.296875
-53.02,1685087724.3125
-48.28,1685087724.328125
-40.19,1685087724.34375
-29.61,1685087724.359375
-17.85,1685087724.375
-6.25,1685087724.390625
4.16,1685087724.40625
12.87,1685087724.421875
19.76,1685087724.4375
24.98,1685087724.453125
28.64,1685087724.46875
30.82,1685087724.484375
31.59,1685087724.5
31.16,1685087724.515625
29.85,1685087724.53125
28.12,1685087724.546875
26.39,1685087724.5625
24.94,1685087724.578125
23.84,1685087724.59375
22.99,1685087724.609375
22.15,1685087724.625
21.08,1685087724.640625
19.68,1685087724.65625
18.01,1685087724.671875
16.27,1685087724.6875
14.70,1685087724.703125
13.39,1685087724.71875
12.22,1685087724.734375
10.89,1685087724.75
9.05,1685087724.765625
6.46,1685087724.78125
3.14,1685087724.796875
-0.68,1685087724.8125
-4.63,1685087724.828125
-8.40,1685087724.84375
-11.81,1685087724.859375
-14.87,1685087724.875
-17.70,1685087724.890625
-20.43,1685087724.90625
-23.25,1685087724.921875
-26.30,1685087724.9375
-29.81,1685087724.953125
-33.98,1685087724.96875
-38.94,1685087724.984375
-44.59,1685087725.0
-50.43,1685087725.015625
-55.58,1685087725.03125
-58.90,1685087725.046875
-59.33,1685087725.0625
-56.19,1685087725.078125
-49.49,1685087725.09375
-39.88,1685087725.109375
-28.49,1685087725.125
-16.60,1685087725.140625
-5.26,1685087725.15625
4.82,1685087725.171875
13.33,1685087725.1875
20.22,1685087725.203125
25.54,1685087725.21875
29.40,1685087725.234375
31.90,1685087725.25
33.19,1685087725.265625
33.44,1685087725.28125
32.90,1685087725.296875
31.81,1685087725.3125
30.44,1685087725.328125
29.03,1685087725.34375
27.72,1685087725.359375
26.53,1685087725.375
25.33,1685087725.390625
23.98,1685087725.40625
22.40,1685087725.421875
20.60,1685087725.4375
18.74,1685087725.453125
17.00,1685087725.46875
15.46,1685087725.484375
14.04,1685087725.5
12.50,1685087725.515625
10.54,1685087725.53125
7.95,1685087725.546875
4.70,1685087725.5625
0.93,1685087725.578125
-3.11,1685087725.59375
-7.24,1685087725.609375
-11.32,1685087725.625
-15.31,1685087725.640625
-19.22,1685087725.65625
-23.04,1685087725.671875
-26.76,1685087725.6875
-30.36,1685087725.703125
-33.95,1685087725.71875
-37.78,1685087725.734375
-42.18,1685087725.75
-47.36,1685087725.765625
-53.15,1685087725.78125
-58.85,1685087725.796875
-63.29,1685087725.8125
-65.14,1685087725.828125
-63.39,1685087725.84375
-57.68,1685087725.859375
-48.51,1685087725.875
-36.97,1685087725.890625
-24.43,1685087725.90625
-12.12,1685087725.921875
-0.86,1685087725.9375
8.97,1685087725.953125
17.27,1685087725.96875
24.07,1685087725.984375
29.38,1685087726.0
33.16,1685087726.015625
35.44,1685087726.03125
36.36,1685087726.046875
36.18,1685087726.0625
35.28,1685087726.078125
34.04,1685087726.09375
32.73,1685087726.109375
31.55,1685087726.125
30.54,1685087726.140625
29.71,1685087726.15625
28.98,1685087726.171875
28.30,1685087726.1875
27.58,1685087726.203125
26.68,1685087726.21875
25.48,1685087726.234375
23.86,1685087726.25
21.78,1685087726.265625
19.27,1685087726.28125
16.45,1685087726.296875
13.46,1685087726.3125
10.38,1685087726.328125
7.22,1685087726.34375
3.91,1685087726.359375
0.37,1685087726.375
-3.45,1685087726.390625
-7.46,1685087726.40625
-11.51,1685087726.421875
-15.46,1685087726.4375
-19.20,1685087726.453125
-22.80,1685087726.46875
-26.41,1685087726.484375
-30.25,1685087726.5
-34.59,1685087726.515625
-39.56,1685087726.53125
-45.15,1685087726.546875
-51.03,1685087726.5625
-56.53,1685087726.578125
-60.62,1685087726.59375
-62.17,1685087726.609375
-60.27,1685087726.625
-54.56,1685087726.640625
-45.37,1685087726.65625
-33.71,1685087726.671875
-20.91,1685087726.6875
-8.26,1685087726.703125
3.29,1685087726.71875
13.25,1685087726.734375
21.51,1685087726.75
28.14,1685087726.765625
33.27,1685087726.78125
37.00,1685087726.796875
39.42,1685087726.8125
40.66,1685087726.828125
40.93,1685087726.84375
40.45,1685087726.859375
39.46,1685087726.875
38.08,1685087726.890625
36.44,1685087726.90625
34.64,1685087726.921875
32.81,1685087726.9375
31.14,1685087726.953125
29.80,1685087726.96875
28.85,1685087726.984375
28.21,1685087727.0
27.67,1685087727.015625
26.94,1685087727.03125
25.76,1685087727.046875
24.05,1685087727.0625
21.82,1685087727.078125
19.20,1685087727.09375
16.32,1685087727.109375
13.25,1685087727.125
10.00,1685087727.140625
6.52,1685087727.15625
2.78,1685087727.171875
-1.18,1685087727.1875
-5.21,1685087727.203125
-9.16,1685087727.21875
-12.90,1685087727.234375
-16.42,1685087727.25
-19.88,1685087727.265625
-23.53,1685087727.28125
-27.64,1685087727.296875
-32.46,1685087727.3125
-38.06,1685087727.328125
-44.25,1685087727.34375
-50.53,1685087727.359375
-56.01,1685087727.375
-59.59,1685087727.390625
-60.21,1685087727.40625
-57.13,1685087727.421875
-50.28,1685087727.4375
-40.25,1685087727.453125
-28.18,1685087727.46875
-15.38,1685087727.484375
-3.02,1685087727.5
8.12,1685087727.515625
17.63,1685087727.53125
25.37,1685087727.546875
31.35,1685087727.5625
35.62,1685087727.578125
38.31,1685087727.59375
39.59,1685087727.609375
39.72,1685087727.625
39.00,1685087727.640625
37.70,1685087727.65625
36.08,1685087727.671875
34.36,1685087727.6875
32.73,1685087727.703125
31.34,1685087727.71875
30.27,1685087727.734375
29.53,1685087727.75
29.02,1685087727.765625
28.53,1685087727.78125
27.87,1685087727.796875
26.83,1685087727.8125
25.33,1685087727.828125
23.42,1685087727.84375
21.21,1685087727.859375
18.84,1685087727.875
16.34,1685087727.890625
13.67,1685087727.90625
10.67,1685087727.921875
7.24,1685087727.9375
3.33,1685087727.953125
-0.93,1685087727.96875
-5.32,1685087727.984375
-9.63,1685087728.0
-13.74,1685087728.015625
-17.61,1685087728.03125
-21.28,1685087728.046875
-24.84,1685087728.0625
-28.39,1685087728.078125
-32.13,1685087728.09375
-36.33,1685087728.109375
-41.20,1685087728.125
-46.72,1685087728.140625
-52.38,1685087728.15625
-57.18,1685087728.171875
-59.79,1685087728.1875
-59.01,1685087728.203125
-54.22,1685087728.21875
-45.69,1685087728.234375
-34.49,1685087728.25
-22.07,1685087728.265625
-9.80,1685087728.28125
1.43,1685087728.296875
11.23,1685087728.3125
19.53,1685087728.328125
26.27,1685087728.34375
31.30,1685087728.359375
34.47,1685087728.375
35.76,1685087728.390625
35.44,1685087728.40625
34.04,1685087728.421875
32.23,1685087728.4375
30.51,1685087728.453125
29.17,1685087728.46875
28.19,1685087728.484375
27.43,1685087728.5
26.69,1685087728.515625
25.84,1685087728.53125
24.85,1685087728.546875
23.75,1685087728.5625
22.59,1685087728.578125
21.38,1685087728.59375
20.07,1685087728.609375
18.57,1685087728.625
16.79,1685087728.640625
14.66,1685087728.65625
12.18,1685087728.671875
9.35,1685087728.6875
6.22,1685087728.703125
2.80,1685087728.71875
-0.94,1685087728.734375
-4.99,1685087728.75
-9.31,1685087728.765625
-13.73,1685087728.78125
-18.09,1685087728.796875
-22.24,1685087728.8125
-26.19,1685087728.828125
-30.09,1685087728.84375
-34.26,1685087728.859375
-39.04,1685087728.875
-44.62,1685087728.890625
-50.87,1685087728.90625
-57.22,1685087728.921875
-62.66,1685087728.9375
-65.96,1685087728.953125
-66.01,1685087728.96875
-62.16,1685087728.984375
-54.48,1685087729.0
-43.71,1685087729.015625
-31.09,1685087729.03125
-17.94,1685087729.046875
-5.41,1685087729.0625
5.77,1685087729.078125
15.29,1685087729.09375
23.13,1685087729.109375
29.34,1685087729.125
34.01,1685087729.140625
37.16,1685087729.15625
38.86,1685087729.171875
39.28,1685087729.1875
38.74,1685087729.203125
37.65,1685087729.21875
36.40,1685087729.234375
35.22,1685087729.25
34.17,1685087729.265625
33.16,1685087729.28125
32.03,1685087729.296875
30.66,1685087729.3125
29.04,1685087729.328125
27.26,1685087729.34375
25.45,1685087729.359375
23.70,1685087729.375
22.06,1685087729.390625
20.46,1685087729.40625
18.78,1685087729.421875
16.84,1685087729.4375
14.46,1685087729.453125
11.53,1685087729.46875
8.03,1685087729.484375
4.08,1685087729.5
-0.16,1685087729.515625
-4.47,1685087729.53125
-8.67,1685087729.546875
-12.69,1685087729.5625
-16.54,1685087729.578125
-20.32,1685087729.59375
-24.21,1685087729.609375
-28.42,1685087729.625
-33.21,1685087729.640625
-38.78,1685087729.65625
-45.16,1685087729.671875
-52.05,1685087729.6875
-58.72,1685087729.703125
-64.02,1685087729.71875
-66.63,1685087729.734375
-65.43,1685087729.75
-59.92,1685087729.765625
-50.42,1685087729.78125
-38.03,1685087729.796875
-24.26,1685087729.8125
-10.63,1685087729.828125
1.76,1685087729.84375
12.33,1685087729.859375
20.98,1685087729.875
27.85,1685087729.890625
33.12,1685087729.90625
36.92,1685087729.921875
39.29,1685087729.9375
40.35,1685087729.953125
40.32,1685087729.96875
39.55,1685087729.984375
38.42,1685087730.0
37.24,1685087730.015625
36.20,1685087730.03125
35.33,1685087730.046875
34.58,1685087730.0625
33.83,1685087730.078125
33.00,1685087730.09375
32.00,1685087730.109375
30.80,1685087730.125
29.32,1685087730.140625
27.56,1685087730.15625
25.51,1685087730.171875
23.20,1685087730.1875
20.67,1685087730.203125
17.91,1685087730.21875
14.86,1685087730.234375
11.41,1685087730.25
7.49,1685087730.265625
3.16,1685087730.28125
-1.48,1685087730.296875
-6.22,1685087730.3125
-10.92,1685087730.328125
-15.51,1685087730.34375
-20.03,1685087730.359375
-24.56,1685087730.375
-29.27,1685087730.390625
-34.28,1685087730.40625
-39.75,1685087730.421875
-45.66,1685087730.4375
-51.85,1685087730.453125
-57.75,1685087730.46875
-62.43,1685087730.484375
-64.74,1685087730.5
-63.60,1685087730.515625
-58.45,1685087730.53125
-49.44,1685087730.546875
-37.46,1685087730.5625
-23.87,1685087730.578125
-10.10,1685087730.59375
2.71,1685087730.609375
13.89,1685087730.625
23.20,1685087730.640625
30.70,1685087730.65625
36.52,1685087730.671875
40.76,1685087730.6875
43.51,1685087730.703125
44.88,1685087730.71875
45.01,1685087730.734375
44.15,1685087730.75
42.60,1685087730.765625
40.70,1685087730.78125
38.73,1685087730.796875
36.88,1685087730.8125
35.24,1685087730.828125
33.82,1685087730.84375
32.58,1685087730.859375
31.46,1685087730.875
30.39,1685087730.890625
29.26,1685087730.90625
27.93,1685087730.921875
26.26,1685087730.9375
24.19,1685087730.953125
21.73,1685087730.96875
19.00,1685087730.984375
16.08,1685087731.0
12.99,1685087731.015625
9.65,1685087731.03125
5.93,1685087731.046875
1.80,1685087731.0625
-2.69,1685087731.078125
-7.34,1685087731.09375
-11.95,1685087731.109375
-16.40,1685087731.125
-20.69,1685087731.140625
-24.95,1685087731.15625
-29.39,1685087731.171875
-34.20,1685087731.1875
-39.55,1685087731.203125
-45.43,1685087731.21875
-51.48,1685087731.234375
-56.93,1685087731.25
-60.68,1685087731.265625
-61.49,1685087731.28125
-58.46,1685087731.296875
-51.37,1685087731.3125
-40.82,1685087731.328125
-28.09,1685087731.34375
-14.70,1685087731.359375
-1.98,1685087731.375
9.25,1685087731.390625
18.66,1685087731.40625
26.26,1685087731.421875
32.15,1685087731.4375
36.39,1685087731.453125
38.93,1685087731.46875
39.79,1685087731.484375
39.18,1685087731.5
37.53,1685087731.515625
35.38,1685087731.53125
33.28,1685087731.546875
31.52,1685087731.5625
30.15,1685087731.578125
28.96,1685087731.59375
27.69,1685087731.609375
26.22,1685087731.625
24.58,1685087731.640625
22.93,1685087731.65625
21.41,1685087731.671875
20.04,1685087731.6875
18.69,1685087731.703125
17.14,1685087731.71875
15.19,1685087731.734375
12.71,1685087731.75
9.66,1685087731.765625
6.08,1685087731.78125
2.03,1685087731.796875
-2.35,1685087731.8125
-6.87,1685087731.828125
-11.33,1685087731.84375
-15.53,1685087731.859375
-19.42,1685087731.875
-23.08,1685087731.890625
-26.81,1685087731.90625
-30.93,1685087731.921875
-35.77,1685087731.9375
-41.44,1685087731.953125
-47.72,1685087731.96875
-53.96,1685087731.984375
-59.20,1685087732.0
-62.25,1685087732.015625
-62.12,1685087732.03125
-58.22,1685087732.046875
-50.58,1685087732.0625
-39.87,1685087732.078125
-27.22,1685087732.09375
-13.93,1685087732.109375
-1.18,1685087732.125
10.14,1685087732.140625
19.53,1685087732.15625
26.78,1685087732.171875
31.93,1685087732.1875
35.11,1685087732.203125
36.58,1685087732.21875
36.66,1685087732.234375
35.73,1685087732.25
34.24,1685087732.265625
32.62,1685087732.28125
31.21,1685087732.296875
30.12,1685087732.3125
29.27,1685087732.328125
28.42,1685087732.34375
27.35,1685087732.359375
25.92,1685087732.375
24.24,1685087732.390625
22.50,1685087732.40625
20.92,1685087732.421875
19.56,1685087732.4375
18.22,1685087732.453125
16.58,1685087732.46875
14.23,1685087732.484375
10.91,1685087732.5
6.61,1685087732.515625
1.58,1685087732.53125
-3.75,1685087732.546875
-8.97,1685087732.5625
-13.75,1685087732.578125
-18.02,1685087732.59375
-21.89,1685087732.609375
-25.67,1685087732.625
-29.68,1685087732.640625
-34.26,1685087732.65625
-39.59,1685087732.671875
-45.68,1685087732.6875
-52.28,1685087732.703125
-58.76,1685087732.71875
-64.13,1685087732.734375
-67.18,1685087732.75
-66.79,1685087732.765625
-62.31,1685087732.78125
-53.82,1685087732.796875
-42.13,1685087732.8125
-28.58,1685087732.828125
-14.61,1685087732.84375
-1.42,1685087732.859375
10.27,1685087732.875
20.16,1685087732.890625
28.19,1685087732.90625
34.38,1685087732.921875
38.75,1685087732.9375
41.29,1685087732.953125
42.13,1685087732.96875
41.58,1685087732.984375
40.12,1685087733.0
38.33,1685087733.015625
36.66,1685087733.03125
35.34,1685087733.046875
34.36,1685087733.0625
33.46,1685087733.078125
32.39,1685087733.09375
30.97,1685087733.109375
29.19,1685087733.125
27.20,1685087733.140625
25.13,1685087733.15625
23.07,1685087733.171875
20.99,1685087733.1875
18.74,1685087733.203125
16.13,1685087733.21875
12.98,1685087733.234375
9.17,1685087733.25
4.66,1685087733.265625
-0.42,1685087733.28125
-5.82,1685087733.296875
-11.14,1685087733.3125
-16.04,1685087733.328125
-20.32,1685087733.34375
-24.08,1685087733.359375
-27.69,1685087733.375
-31.67,1685087733.390625
-36.51,1685087733.40625
-42.41,1685087733.421875
-49.20,1685087733.4375
-56.23,1685087733.453125
-62.48,1685087733.46875
-66.74,1685087733.484375
-67.85,1685087733.5
-65.00,1685087733.515625
-58.01,1685087733.53125
-47.38,1685087733.546875
-34.25,1685087733.5625
-20.08,1685087733.578125
-6.27,1685087733.59375
6.20,1685087733.609375
16.81,1685087733.625
25.51,1685087733.640625
32.45,1685087733.65625
37.78,1685087733.671875
41.56,1685087733.6875
43.75,1685087733.703125
44.39,1685087733.71875
43.70,1685087733.734375
42.15,1685087733.75
40.29,1685087733.765625
38.60,1685087733.78125
37.30,1685087733.796875
36.29,1685087733.8125
35.30,1685087733.828125
34.01,1685087733.84375
32.29,1685087733.859375
30.20,1685087733.875
27.97,1685087733.890625
25.79,1685087733.90625
23.77,1685087733.921875
21.79,1685087733.9375
19.66,1685087733.953125
17.12,1685087733.96875
14.01,1685087733.984375
10.26,1685087734.0
5.93,1685087734.015625
1.15,1685087734.03125
-3.88,1685087734.046875
-8.90,1685087734.0625
-13.70,1685087734.078125
-18.15,1685087734.09375
-22.23,1685087734.109375
-26.14,1685087734.125
-30.19,1685087734.140625
-34.73,1685087734.15625
-40.05,1685087734.171875
-46.14,1685087734.1875
-52.61,1685087734.203125
-58.57,1685087734.21875
-62.85,1685087734.234375
-64.23,1685087734.25
-61.82,1685087734.265625
-55.37,1685087734.28125
-45.31,1685087734.296875
-32.70,1685087734.3125
-18.88,1685087734.328125
-5.14,1685087734.34375
7.50,1685087734.359375
18.42,1685087734.375
27.36,1685087734.390625
34.28,1685087734.40625
39.25,1685087734.421875
42.44,1685087734.4375
44.02,1685087734.453125
44.27,1685087734.46875
43.53,1685087734.484375
42.21,1685087734.5
40.65,1685087734.515625
39.08,1685087734.53125
37.57,1685087734.546875
36.01,1685087734.5625
34.27,1685087734.578125
32.27,1685087734.59375
30.09,1685087734.609375
27.91,1685087734.625
25.92,1685087734.640625
24.22,1685087734.65625
22.72,1685087734.671875
21.23,1685087734.6875
19.50,1685087734.703125
17.32,1685087734.71875
14.55,1685087734.734375
11.20,1685087734.75
7.36,1685087734.765625
3.18,1685087734.78125
-1.16,1685087734.796875
-5.48,1685087734.8125
-9.71,1685087734.828125
-13.83,1685087734.84375
-17.92,1685087734.859375
-22.07,1685087734.875
-26.42,1685087734.890625
-31.10,1685087734.90625
-36.29,1685087734.921875
-41.99,1685087734.9375
-48.01,1685087734.953125
-53.75,1685087734.96875
-58.22,1685087734.984375
-60.23,1685087735.0
-58.73,1685087735.015625
-53.23,1685087735.03125
-44.03,1685087735.046875
-32.13,1685087735.0625
-19.00,1685087735.078125
-6.08,1685087735.09375
5.58,1685087735.109375
15.44,1685087735.125
23.42,1685087735.140625
29.60,1685087735.15625
34.08,1685087735.171875
36.90,1685087735.1875
38.11,1685087735.203125
37.88,1685087735.21875
36.59,1685087735.234375
34.72,1685087735.25
32.74,1685087735.265625
30.93,1685087735.28125
29.35,1685087735.296875
27.91,1685087735.3125
26.48,1685087735.328125
24.97,1685087735.34375
23.43,1685087735.359375
21.94,1685087735.375
20.57,1685087735.390625
19.34,1685087735.40625
18.12,1685087735.421875
16.70,1685087735.4375
14.81,1685087735.453125
12.24,1685087735.46875
8.85,1685087735.484375
4.68,1685087735.5
-0.05,1685087735.515625
-4.99,1685087735.53125
-9.75,1685087735.546875
-14.01,1685087735.5625
-17.69,1685087735.578125
-20.93,1685087735.59375
-24.07,1685087735.609375
-27.55,1685087735.625
-31.75,1685087735.640625
-36.90,1685087735.65625
-42.98,1685087735.671875
-49.61,1685087735.6875
-56.08,1685087735.703125
-61.34,1685087735.71875
-64.17,1685087735.734375
-63.49,1685087735.75
-58.68,1685087735.765625
-49.90,1685087735.78125
-38.07,1685087735.796875
-24.67,1685087735.8125
-11.25,1685087735.828125
0.98,1685087735.84375
11.42,1685087735.859375
19.99,1685087735.875
26.90,1685087735.890625
32.37,1685087735.90625
36.47,1685087735.921875
39.11,1685087735.9375
40.26,1685087735.953125
40.04,1685087735.96875
38.79,1685087735.984375
36.94,1685087736.0
34.92,1685087736.015625
33.01,1685087736.03125
31.37,1685087736.046875
30.02,1685087736.0625
28.92,1685087736.078125
27.99,1685087736.09375
27.12,1685087736.109375
26.20,1685087736.125
25.10,1685087736.140625
23.73,1685087736.15625
22.07,1685087736.171875
20.07,1685087736.1875
17.74,1685087736.203125
14.99,1685087736.21875
11.72,1685087736.234375
7.86,1685087736.25
3.47,1685087736.265625
-1.26,1685087736.28125
-6.05,1685087736.296875
-10.64,1685087736.3125
-14.88,1685087736.328125
-18.83,1685087736.34375
-22.68,1685087736.359375
-26.68,1685087736.375
-31.04,1685087736.390625
-35.87,1685087736.40625
-41.24,1685087736.421875
-47.03,1685087736.4375
-52.98,1685087736.453125
-58.42,1685087736.46875
-62.38,1685087736.484375
-63.68,1685087736.5
-61.37,1685087736.515625
-55.07,1685087736.53125
-45.21,1685087736.546875
-32.96,1685087736.5625
-19.82,1685087736.578125
-7.13,1685087736.59375
4.27,1685087736.609375
14.08,1685087736.625
22.34,1685087736.640625
29.14,1685087736.65625
34.44,1685087736.671875
38.12,1685087736.6875
40.10,1685087736.703125
40.55,1685087736.71875
39.87,1685087736.734375
38.56,1685087736.75
37.07,1685087736.765625
35.66,1685087736.78125
34.36,1685087736.796875
33.08,1685087736.8125
31.73,1685087736.828125
30.27,1685087736.84375
28.77,1685087736.859375
27.36,1685087736.875
26.12,1685087736.890625
25.00,1685087736.90625
23.88,1685087736.921875
22.57,1685087736.9375
20.90,1685087736.953125
18.77,1685087736.96875
16.19,1685087736.984375
13.20,1685087737.0
9.85,1685087737.015625
6.13,1685087737.03125
2.03,1685087737.046875
-2.43,1685087737.0625
-7.18,1685087737.078125
-12.03,1685087737.09375
-16.78,1685087737.109375
-21.26,1685087737.125
-25.46,1685087737.140625
-29.49,1685087737.15625
-33.63,1685087737.171875
-38.22,1685087737.1875
-43.45,1685087737.203125
-49.25,1685087737.21875
-55.09,1685087737.234375
-60.02,1685087737.25
-62.81,1685087737.265625
-62.33,1685087737.28125
-57.96,1685087737.296875
-49.86,1685087737.3125
-38.91,1685087737.328125
-26.44,1685087737.34375
-13.75,1685087737.359375
-1.87,1685087737.375
8.70,1685087737.390625
17.76,1685087737.40625
25.23,1685087737.421875
31.04,1685087737.4375
35.08,1685087737.453125
37.36,1685087737.46875
38.10,1685087737.484375
37.70,1685087737.5
36.66,1685087737.515625
35.42,1685087737.53125
34.24,1685087737.546875
33.17,1685087737.5625
32.21,1685087737.578125
31.31,1685087737.59375
30.49,1685087737.609375
29.77,1685087737.625
29.10,1685087737.640625
28.37,1685087737.65625
27.38,1685087737.671875
25.97,1685087737.6875
24.04,1685087737.703125
21.63,1685087737.71875
18.90,1685087737.734375
16.02,1685087737.75
13.13,1685087737.765625
10.20,1685087737.78125
7.14,1685087737.796875
3.83,1685087737.8125
0.19,1685087737.828125
-3.70,1685087737.84375
-7.76,1685087737.859375
-11.85,1685087737.875
-15.91,1685087737.890625
-19.89,1685087737.90625
-23.80,1685087737.921875
-27.68,1685087737.9375
-31.60,1685087737.953125
-35.69,1685087737.96875
-40.15,1685087737.984375
-45.11,1685087738.0
-50.49,1685087738.015625
-55.79,1685087738.03125
-60.12,1685087738.046875
-62.30,1685087738.0625
-61.25,1685087738.078125
-56.41,1685087738.09375
-47.95,1685087738.109375
-36.77,1685087738.125
-24.23,1685087738.140625
-11.66,1685087738.15625
-0.09,1685087738.171875
9.94,1685087738.1875
18.31,1685087738.203125
25.09,1685087738.21875
30.37,1685087738.234375
34.17,1685087738.25
36.51,1685087738.265625
37.45,1685087738.28125
37.23,1685087738.296875
36.16,1685087738.3125
34.59,1685087738.328125
32.86,1685087738.34375
31.21,1685087738.359375
29.79,1685087738.375
28.69,1685087738.390625
27.87,1685087738.40625
27.24,1685087738.421875
26.67,1685087738.4375
25.98,1685087738.453125
25.04,1685087738.46875
23.78,1685087738.484375
22.13,1685087738.5
20.08,1685087738.515625
17.63,1685087738.53125
14.77,1685087738.546875
11.58,1685087738.5625
8.19,1685087738.578125
4.76,1685087738.59375
1.38,1685087738.609375
-1.93,1685087738.625
-5.24,1685087738.640625
-8.68,1685087738.65625
-12.31,1685087738.671875
-16.11,1685087738.6875
-19.96,1685087738.703125
-23.70,1685087738.71875
-27.29,1685087738.734375
-30.80,1685087738.75
-34.51,1685087738.765625
-38.70,1685087738.78125
-43.54,1685087738.796875
-48.78,1685087738.8125
-53.71,1685087738.828125
-57.23,1685087738.84375
-58.19,1685087738.859375
-55.76,1685087738.875
-49.84,1685087738.890625
-40.96,1685087738.90625
-30.19,1685087738.921875
-18.71,1685087738.9375
-7.47,1685087738.953125
2.91,1685087738.96875
12.09,1685087738.984375
19.84,1685087739.0
25.96,1685087739.015625
30.29,1685087739.03125
32.80,1685087739.046875
33.66,1685087739.0625
33.23,1685087739.078125
31.99,1685087739.09375
30.39,1685087739.109375
28.75,1685087739.125
27.27,1685087739.140625
26.02,1685087739.15625
25.03,1685087739.171875
24.31,1685087739.1875
23.81,1685087739.203125
23.43,1685087739.21875
23.01,1685087739.234375
22.35,1685087739.25
21.28,1685087739.265625
19.74,1685087739.28125
17.75,1685087739.296875
15.47,1685087739.3125
13.04,1685087739.328125
10.57,1685087739.34375
8.02,1685087739.359375
5.29,1685087739.375
2.20,1685087739.390625
-1.32,1685087739.40625
-5.24,1685087739.421875
-9.37,1685087739.4375
-13.42,1685087739.453125
-17.19,1685087739.46875
-20.56,1685087739.484375
-23.60,1685087739.5
-26.47,1685087739.515625
-29.41,1685087739.53125
-32.72,1685087739.546875
-36.65,1685087739.5625
-41.39,1685087739.578125
-46.90,1685087739.59375
-52.76,1685087739.609375
-58.06,1685087739.625
-61.58,1685087739.640625
-62.02,1685087739.65625
-58.53,1685087739.671875
-51.04,1685087739.6875
-40.32,1685087739.703125
-27.79,1685087739.71875
-15.00,1685087739.734375
-3.24,1685087739.75
6.76,1685087739.765625
14.82,1685087739.78125
21.09,1685087739.796875
25.79,1685087739.8125
29.12,1685087739.828125
31.18,1685087739.84375
32.07,1685087739.859375
31.98,1685087739.875
31.17,1685087739.890625
29.97,1685087739.90625
28.68,1685087739.921875
27.49,1685087739.9375
26.49,1685087739.953125
25.64,1685087739.96875
24.85,1685087739.984375
24.00,1685087740.0
23.00,1685087740.015625
21.80,1685087740.03125
20.42,1685087740.046875
18.89,1685087740.0625
17.23,1685087740.078125
15.45,1685087740.09375
13.52,1685087740.109375
11.37,1685087740.125
8.89,1685087740.140625
5.94,1685087740.15625
2.43,1685087740.171875
-1.68,1685087740.1875
-6.24,1685087740.203125
-10.96,1685087740.21875
-15.49,1685087740.234375
-19.54,1685087740.25
-23.04,1685087740.265625
-26.16,1685087740.28125
-29.27,1685087740.296875
-32.80,1685087740.3125
-37.09,1685087740.328125
-42.30,1685087740.34375
-48.31,1685087740.359375
-54.69,1685087740.375
-60.67,1685087740.390625
-65.24,1685087740.40625
-67.28,1685087740.421875
-65.87,1685087740.4375
-60.57,1685087740.453125
-51.62,1685087740.46875
-39.94,1685087740.484375
-26.86,1685087740.5
-13.77,1685087740.515625
-1.75,1685087740.53125
8.61,1685087740.546875
17.15,1685087740.5625
24.02,1685087740.578125
29.43,1685087740.59375
33.53,1685087740.609375
36.35,1685087740.625
37.94,1685087740.640625
38.39,1685087740.65625
37.96,1685087740.671875
36.96,1685087740.6875
35.73,1685087740.703125
34.51,1685087740.71875
33.40,1685087740.734375
32.39,1685087740.75
31.42,1685087740.765625
30.45,1685087740.78125
29.46,1685087740.796875
28.45,1685087740.8125
27.39,1685087740.828125
26.19,1685087740.84375
24.75,1685087740.859375
22.95,1685087740.875
20.74,1685087740.890625
18.06,1685087740.90625
14.90,1685087740.921875
11.27,1685087740.9375
7.17,1685087740.953125
2.65,1685087740.96875
-2.15,1685087740.984375
-7.03,1685087741.0
-11.79,1685087741.015625
-16.27,1685087741.03125
-20.43,1685087741.046875
-24.36,1685087741.0625
-28.27,1685087741.078125
-32.43,1685087741.09375
-37.15,1685087741.109375
-42.61,1685087741.125
-48.81,1685087741.140625
-55.33,1685087741.15625
-61.35,1685087741.171875
-65.72,1685087741.1875
-67.19,1685087741.203125
-64.87,1685087741.21875
-58.46,1685087741.234375
-48.43,1685087741.25
-35.85,1685087741.265625
-22.09,1685087741.28125
-8.46,1685087741.296875
4.09,1685087741.3125
15.00,1685087741.328125
24.05,1685087741.34375
31.24,1685087741.359375
36.62,1685087741.375
40.32,1685087741.390625
42.51,1685087741.40625
43.40,1685087741.421875
43.25,1685087741.4375
42.38,1685087741.453125
41.09,1685087741.46875
39.67,1685087741.484375
38.32,1685087741.5
37.14,1685087741.515625
36.14,1685087741.53125
35.23,1685087741.546875
34.34,1685087741.5625
33.39,1685087741.578125
32.31,1685087741.59375
31.06,1685087741.609375
29.56,1685087741.625
27.71,1685087741.640625
25.45,1685087741.65625
22.76,1685087741.671875
19.63,1685087741.6875
16.08,1685087741.703125
12.09,1685087741.71875
7.67,1685087741.734375
2.91,1685087741.75
-2.05,1685087741.765625
-6.95,1685087741.78125
-11.60,1685087741.796875
-15.88,1685087741.8125
-19.89,1685087741.828125
-23.85,1685087741.84375
-28.07,1685087741.859375
-32.86,1685087741.875
-38.39,1685087741.890625
-44.68,1685087741.90625
-51.45,1685087741.921875
-57.99,1685087741.9375
-63.21,1685087741.953125
-65.80,1685087741.96875
-64.60,1685087741.984375
-59.07,1685087742.0
-49.49,1685087742.015625
-36.99,1685087742.03125
-23.16,1685087742.046875
-9.56,1685087742.0625
2.73,1685087742.078125
13.22,1685087742.09375
21.90,1685087742.109375
29.02,1685087742.125
34.74,1685087742.140625
39.11,1685087742.15625
42.08,1685087742.171875
43.63,1685087742.1875
43.88,1685087742.203125
43.11,1685087742.21875
41.70,1685087742.234375
40.03,1685087742.25
38.38,1685087742.265625
36.91,1685087742.28125
35.66,1685087742.296875
34.58,1685087742.3125
33.58,1685087742.328125
32.55,1685087742.34375
31.36,1685087742.359375
29.93,1685087742.375
28.19,1685087742.390625
26.13,1685087742.40625
23.80,1685087742.421875
21.22,1685087742.4375
18.42,1685087742.453125
15.35,1685087742.46875
11.94,1685087742.484375
8.12,1685087742.5
3.88,1685087742.515625
-0.67,1685087742.53125
-5.33,1685087742.546875
-9.91,1685087742.5625
-14.26,1685087742.578125
-18.36,1685087742.59375
-22.34,1685087742.609375
-26.46,1685087742.625
-30.99,1685087742.640625
-36.15,1685087742.65625
-42.02,1685087742.671875
-48.40,1685087742.6875
-54.81,1685087742.703125
-60.46,1685087742.71875
-64.29,1685087742.734375
-65.26,1685087742.75
-62.60,1685087742.765625
-56.05,1685087742.78125
-46.05,1685087742.796875
-33.61,1685087742.8125
-20.05,1685087742.828125
-6.64,1685087742.84375
5.63,1685087742.859375
16.19,1685087742.875
24.85,1685087742.890625
31.64,1685087742.90625
36.71,1685087742.921875
40.19,1685087742.9375
42.23,1685087742.953125
42.98,1685087742.96875
42.64,1685087742.984375
41.46,1685087743.0
39.73,1685087743.015625
37.77,1685087743.03125
35.89,1685087743.046875
34.28,1685087743.0625
32.96,1685087743.078125
31.86,1685087743.09375
30.76,1685087743.109375
29.49,1685087743.125
27.98,1685087743.140625
26.27,1685087743.15625
24.50,1685087743.171875
22.72,1685087743.1875
20.89,1685087743.203125
18.78,1685087743.21875
16.09,1685087743.234375
12.66,1685087743.25
8.51,1685087743.265625
3.95,1685087743.28125
-0.66,1685087743.296875
-5.00,1685087743.3125
-8.96,1685087743.328125
-12.62,1685087743.34375
-16.20,1685087743.359375
-19.83,1685087743.375
-23.62,1685087743.390625
-27.68,1685087743.40625
-32.23,1685087743.421875
-37.53,1685087743.4375
-43.62,1685087743.453125
-50.14,1685087743.46875
-56.13,1685087743.484375
-60.25,1685087743.5
-61.19,1685087743.515625
-58.16,1685087743.53125
-51.17,1685087743.546875
-40.97,1685087743.5625
-28.82,1685087743.578125
-16.00,1685087743.59375
-3.56,1685087743.609375
7.85,1685087743.625
17.84,1685087743.640625
26.17,1685087743.65625
32.60,1685087743.671875
36.93,1685087743.6875
39.08,1685087743.703125
39.24,1685087743.71875
37.86,1685087743.734375
35.60,1685087743.75
33.12,1685087743.765625
30.89,1685087743.78125
29.11,1685087743.796875
27.70,1685087743.8125
26.47,1685087743.828125
25.28,1685087743.84375
24.08,1685087743.859375
22.93,1685087743.875
21.88,1685087743.890625
20.87,1685087743.90625
19.75,1685087743.921875
18.27,1685087743.9375
16.26,1685087743.953125
13.63,1685087743.96875
10.38,1685087743.984375
6.57,1685087744.0
2.31,1685087744.015625
-2.26,1685087744.03125
-6.95,1685087744.046875
-11.52,1685087744.0625
-15.76,1685087744.078125
-19.63,1685087744.09375
-23.27,1685087744.109375
-27.06,1685087744.125
-31.40,1685087744.140625
-36.61,1685087744.15625
-42.71,1685087744.171875
-49.31,1685087744.1875
-55.62,1685087744.203125
-60.61,1685087744.21875
-63.18,1685087744.234375
-62.48,1685087744.25
-58.10,1685087744.265625
-50.20,1685087744.28125
-39.50,1685087744.296875
-27.12,1685087744.3125
-14.33,1685087744.328125
-2.20,1685087744.34375
8.49,1685087744.359375
17.45,1685087744.375
24.70,1685087744.390625
30.40,1685087744.40625
34.69,1685087744.421875
37.58,1685087744.4375
39.06,1685087744.453125
39.16,1685087744.46875
38.10,1685087744.484375
36.34,1685087744.5
34.40,1685087744.515625
32.68,1685087744.53125
31.34,1685087744.546875
30.22,1685087744.5625
29.09,1685087744.578125
27.74,1685087744.59375
26.18,1685087744.609375
24.54,1685087744.625
22.98,1685087744.640625
21.49,1685087744.65625
19.90,1685087744.671875
17.92,1685087744.6875
15.27,1685087744.703125
11.85,1685087744.71875
7.73,1685087744.734375
3.13,1685087744.75
-1.68,1685087744.765625
-6.45,1685087744.78125
-10.98,1685087744.796875
-15.17,1685087744.8125
-19.01,1685087744.828125
-22.63,1685087744.84375
-26.29,1685087744.859375
-30.34,1685087744.875
-35.15,1685087744.890625
-41.02,1685087744.90625
-47.97,1685087744.921875
-55.59,1685087744.9375
-62.96,1685087744.953125
-68.76,1685087744.96875
-71.58,1685087744.984375
-70.33,1685087745.0
-64.61,1685087745.015625
-54.90,1685087745.03125
-42.36,1685087745.046875
-28.51,1685087745.0625
-14.75,1685087745.078125
-2.04,1685087745.09375
9.16,1685087745.109375
18.77,1685087745.125
26.89,1685087745.140625
33.58,1685087745.15625
38.82,1685087745.171875
42.54,1685087745.1875
44.71,1685087745.203125
45.43,1685087745.21875
44.97,1685087745.234375
43.68,1685087745.25
41.98,1685087745.265625
40.21,1685087745.28125
38.56,1685087745.296875
37.04,1685087745.3125
35.59,1685087745.328125
34.13,1685087745.34375
32.58,1685087745.359375
30.96,1685087745.375
29.26,1685087745.390625
27.49,1685087745.40625
25.59,1685087745.421875
23.47,1685087745.4375
21.01,1685087745.453125
18.05,1685087745.46875
14.49,1685087745.484375
10.28,1685087745.5
5.51,1685087745.515625
0.37,1685087745.53125
-4.86,1685087745.546875
-9.95,1685087745.5625
-14.76,1685087745.578125
-19.33,1685087745.59375
-23.78,1685087745.609375
-28.32,1685087745.625
-33.14,1685087745.640625
-38.44,1685087745.65625
-44.35,1685087745.671875
-50.93,1685087745.6875
-57.93,1685087745.703125
-64.69,1685087745.71875
-70.15,1685087745.734375
-72.99,1685087745.75
-72.05,1685087745.765625
-66.68,1685087745.78125
-57.05,1685087745.796875
-44.07,1685087745.8125
-29.17,1685087745.828125
-13.88,1685087745.84375
0.55,1685087745.859375
13.32,1685087745.875
24.03,1685087745.890625
32.64,1685087745.90625
39.22,1685087745.921875
43.92,1685087745.9375
46.86,1685087745.953125
48.23,1685087745.96875
48.24,1685087745.984375
47.19,1685087746.0
45.45,1685087746.015625
43.39,1685087746.03125
41.34,1685087746.046875
39.50,1685087746.0625
37.92,1685087746.078125
36.60,1685087746.09375
35.42,1685087746.109375
34.25,1685087746.125
32.99,1685087746.140625
31.53,1685087746.15625
29.82,1685087746.171875
27.82,1685087746.1875
25.53,1685087746.203125
22.95,1685087746.21875
20.07,1685087746.234375
16.86,1685087746.25
13.23,1685087746.265625
9.11,1685087746.28125
4.47,1685087746.296875
-0.64,1685087746.3125
-6.03,1685087746.328125
-11.44,1685087746.34375
-16.62,1685087746.359375
-21.42,1685087746.375
-25.86,1685087746.390625
-30.16,1685087746.40625
-34.67,1685087746.421875
-39.78,1685087746.4375
-45.72,1685087746.453125
-52.48,1685087746.46875
-59.60,1685087746.484375
-66.17,1685087746.5
-70.96,1685087746.515625
-72.66,1685087746.53125
-70.29,1685087746.546875
-63.48,1685087746.5625
-52.67,1685087746.578125
-39.02,1685087746.59375
-24.08,1685087746.609375
-9.34,1685087746.625
4.13,1685087746.640625
15.79,1685087746.65625
25.56,1685087746.671875
33.53,1685087746.6875
39.77,1685087746.703125
44.30,1685087746.71875
47.11,1685087746.734375
48.31,1685087746.75
48.19,1685087746.765625
47.15,1685087746.78125
45.62,1685087746.796875
43.93,1685087746.8125
42.27,1685087746.828125
40.75,1685087746.84375
39.43,1685087746.859375
38.32,1685087746.875
37.39,1685087746.890625
36.51,1685087746.90625
35.49,1685087746.921875
34.15,1685087746.9375
32.35,1685087746.953125
30.05,1685087746.96875
27.33,1685087746.984375
24.24,1685087747.0
20.85,1685087747.015625
17.22,1685087747.03125
13.32,1685087747.046875
9.17,1685087747.0625
4.79,1685087747.078125
0.23,1685087747.09375
-4.45,1685087747.109375
-9.18,1685087747.125
-13.88,1685087747.140625
-18.45,1685087747.15625
-22.81,1685087747.171875
-26.96,1685087747.1875
-31.02,1685087747.203125
-35.25,1685087747.21875
-39.98,1685087747.234375
-45.52,1685087747.25
-51.84,1685087747.265625
-58.40,1685087747.28125
-64.12,1685087747.296875
-67.55,1685087747.3125
-67.36,1685087747.328125
-62.80,1685087747.34375
-54.05,1685087747.359375
-42.14,1685087747.375
-28.60,1685087747.390625
-14.88,1685087747.40625
-2.02,1685087747.421875
9.53,1685087747.4375
19.68,1685087747.453125
28.39,1685087747.46875
35.52,1685087747.484375
40.75,1685087747.5
43.84,1685087747.515625
44.88,1685087747.53125
44.32,1685087747.546875
42.85,1685087747.5625
41.18,1685087747.578125
39.75,1685087747.59375
38.64,1685087747.609375
37.68,1685087747.625
36.62,1685087747.640625
35.33,1685087747.65625
33.84,1685087747.671875
32.29,1685087747.6875
30.78,1685087747.703125
29.30,1685087747.71875
27.71,1685087747.734375
25.84,1685087747.75
23.57,1685087747.765625
20.88,1685087747.78125
17.84,1685087747.796875
14.49,1685087747.8125
10.82,1685087747.828125
6.76,1685087747.84375
2.25,1685087747.859375
-2.69,1685087747.875
-7.86,1685087747.890625
-13.03,1685087747.90625
-17.93,1685087747.921875
-22.44,1685087747.9375
-26.60,1685087747.953125
-30.57,1685087747.96875
-34.59,1685087747.984375
-38.89,1685087748.0
-43.65,1685087748.015625
-48.91,1685087748.03125
-54.40,1685087748.046875
-59.52,1685087748.0625
-63.33,1685087748.078125
-64.71,1685087748.09375
-62.69,1685087748.109375
-56.83,1685087748.125
-47.34,1685087748.140625
-35.12,1685087748.15625
-21.48,1685087748.171875
-7.78,1685087748.1875
4.88,1685087748.203125
15.82,1685087748.21875
24.75,1685087748.234375
31.64,1685087748.25
36.57,1685087748.265625
39.69,1685087748.28125
41.19,1685087748.296875
41.35,1685087748.3125
40.52,1685087748.328125
39.14,1685087748.34375
37.61,1685087748.359375
36.22,1685087748.375
35.11,1685087748.390625
34.22,1685087748.40625
33.36,1685087748.421875
32.36,1685087748.4375
31.04,1685087748.453125
29.40,1685087748.46875
27.47,1685087748.484375
25.37,1685087748.5
23.17,1685087748.515625
20.88,1685087748.53125
18.47,1685087748.546875
15.88,1685087748.5625
13.06,1685087748.578125
9.93,1685087748.59375
6.40,1685087748.609375
2.36,1685087748.625
-2.23,1685087748.640625
-7.31,1685087748.65625
-12.68,1685087748.671875
-18.02,1685087748.6875
-23.00,1685087748.703125
-27.40,1685087748.71875
-31.21,1685087748.734375
-34.68,1685087748.75
-38.28,1685087748.765625
-42.57,1685087748.78125
-47.97,1685087748.796875
-54.46,1685087748.8125
-61.49,1685087748.828125
-67.93,1685087748.84375
-72.28,1685087748.859375
-73.19,1685087748.875
-69.79,1685087748.890625
-62.01,1685087748.90625
-50.61,1685087748.921875
-36.90,1685087748.9375
-22.35,1685087748.953125
-8.21,1685087748.96875
4.66,1685087748.984375
15.82,1685087749.0
25.14,1685087749.015625
32.62,1685087749.03125
38.27,1685087749.046875
42.12,1685087749.0625
44.25,1685087749.078125
44.91,1685087749.09375
44.48,1685087749.109375
43.41,1685087749.125
42.12,1685087749.140625
40.83,1685087749.15625
39.57,1685087749.171875
38.28,1685087749.1875
36.89,1685087749.203125
35.40,1685087749.21875
33.89,1685087749.234375
32.41,1685087749.25
30.90,1685087749.265625
29.21,1685087749.28125
27.19,1685087749.296875
24.80,1685087749.3125
22.11,1685087749.328125
19.28,1685087749.34375
16.39,1685087749.359375
13.41,1685087749.375
10.15,1685087749.390625
6.42,1685087749.40625
2.10,1685087749.421875
-2.74,1685087749.4375
-7.86,1685087749.453125
-12.92,1685087749.46875
-17.63,1685087749.484375
-21.84,1685087749.5
-25.66,1685087749.515625
-29.38,1685087749.53125
-33.42,1685087749.546875
-38.23,1685087749.5625
-44.09,1685087749.578125
-51.00,1685087749.59375
-58.56,1685087749.609375
-65.94,1685087749.625
-71.93,1685087749.640625
-75.15,1685087749.65625
-74.39,1685087749.671875
-68.99,1685087749.6875
-59.11,1685087749.703125
-45.80,1685087749.71875
-30.66,1685087749.734375
-15.46,1685087749.75
-1.60,1685087749.765625
10.15,1685087749.78125
19.69,1685087749.796875
27.27,1685087749.8125
33.28,1685087749.828125
37.95,1685087749.84375
41.36,1685087749.859375
43.55,1685087749.875
44.62,1685087749.890625
44.78,1685087749.90625
44.27,1685087749.921875
43.29,1685087749.9375
41.91,1685087749.953125
40.18,1685087749.96875
38.15,1685087749.984375
36.01,1685087750.0
34.02,1685087750.015625
32.42,1685087750.03125
31.33,1685087750.046875
30.58,1685087750.0625
29.81,1685087750.078125
28.62,1685087750.09375
26.71,1685087750.109375
24.02,1685087750.125
20.74,1685087750.140625
17.17,1685087750.15625
13.53,1685087750.171875
9.92,1685087750.1875
6.29,1685087750.203125
2.51,1685087750.21875
-1.50,1685087750.234375
-5.73,1685087750.25
-10.12,1685087750.265625
-14.57,1685087750.28125
-19.04,1685087750.296875
-23.52,1685087750.3125
-28.01,1685087750.328125
-32.52,1685087750.34375
-37.12,1685087750.359375
-41.96,1685087750.375
-47.29,1685087750.390625
-53.23,1685087750.40625
-59.63,1685087750.421875
-65.84,1685087750.4375
-70.76,1685087750.453125
-73.08,1685087750.46875
-71.68,1685087750.484375
-66.03,1685087750.5
-56.44,1685087750.515625
-43.90,1685087750.53125
-29.88,1685087750.546875
-15.79,1685087750.5625
-2.73,1685087750.578125
8.71,1685087750.59375
18.35,1685087750.609375
26.29,1685087750.625
32.62,1685087750.640625
37.42,1685087750.65625
40.73,1685087750.671875
42.63,1685087750.6875
43.34,1685087750.703125
43.17,1685087750.71875
42.46,1685087750.734375
41.46,1685087750.75
40.26,1685087750.765625
38.88,1685087750.78125
37.35,1685087750.796875
35.78,1685087750.8125
34.35,1685087750.828125
33.24,1685087750.84375
32.47,1685087750.859375
31.88,1685087750.875
31.16,1685087750.890625
29.96,1685087750.90625
28.06,1685087750.921875
25.36,1685087750.9375
21.97,1685087750.953125
18.11,1685087750.96875
14.10,1685087750.984375
10.23,1685087751.0
6.68,1685087751.015625
3.44,1685087751.03125
0.28,1685087751.046875
-3.13,1685087751.0625
-7.07,1685087751.078125
-11.65,1685087751.09375
-16.70,1685087751.109375
-21.84,1685087751.125
-26.72,1685087751.140625
-31.09,1685087751.15625
-34.97,1685087751.171875
-38.67,1685087751.1875
-42.58,1685087751.203125
-47.12,1685087751.21875
-52.44,1685087751.234375
-58.33,1685087751.25
-64.07,1685087751.265625
-68.58,1685087751.28125
-70.56,1685087751.296875
-68.96,1685087751.3125
-63.23,1685087751.328125
-53.61,1685087751.34375
-41.04,1685087751.359375
-26.88,1685087751.375
-12.60,1685087751.390625
0.64,1685087751.40625
12.15,1685087751.421875
21.65,1685087751.4375
29.16,1685087751.453125
34.81,1685087751.46875
38.70,1685087751.484375
40.92,1685087751.5
41.59,1685087751.515625
40.97,1685087751.53125
39.48,1685087751.546875
37.63,1685087751.5625
35.85,1685087751.578125
34.42,1685087751.59375
33.41,1685087751.609375
32.66,1685087751.625
31.99,1685087751.640625
31.23,1685087751.65625
30.33,1685087751.671875
29.25,1685087751.6875
27.97,1685087751.703125
26.44,1685087751.71875
24.60,1685087751.734375
22.45,1685087751.75
20.00,1685087751.765625
17.32,1685087751.78125
14.39,1685087751.796875
11.14,1685087751.8125
7.46,1685087751.828125
3.26,1685087751.84375
-1.41,1685087751.859375
-6.37,1685087751.875
-11.35,1685087751.890625
-16.02,1685087751.90625
-20.16,1685087751.921875
-23.68,1685087751.9375
-26.69,1685087751.953125
-29.50,1685087751.96875
-32.58,1685087751.984375
-36.39,1685087752.0
-41.25,1685087752.015625
-47.08,1685087752.03125
-53.31,1685087752.046875
-58.86,1685087752.0625
-62.44,1685087752.078125
-62.88,1685087752.09375
-59.47,1685087752.109375
-52.22,1685087752.125
-41.84,1685087752.140625
-29.50,1685087752.15625
-16.51,1685087752.171875
-4.00,1685087752.1875
7.22,1685087752.203125
16.75,1685087752.21875
24.46,1685087752.234375
30.32,1685087752.25
34.36,1685087752.265625
36.65,1685087752.28125
37.32,1685087752.296875
36.65,1685087752.3125
35.04,1685087752.328125
33.01,1685087752.34375
31.03,1685087752.359375
29.41,1685087752.375
28.27,1685087752.390625
27.46,1685087752.40625
26.73,1685087752.421875
25.79,1685087752.4375
24.45,1685087752.453125
22.68,1685087752.46875
20.60,1685087752.484375
18.46,1685087752.5
16.41,1685087752.515625
14.49,1685087752.53125
12.50,1685087752.546875
10.09,1685087752.5625
6.91,1685087752.578125
2.82,1685087752.59375
-2.04,1685087752.609375
-7.24,1685087752.625
-12.33,1685087752.640625
-16.92,1685087752.65625
-20.91,1685087752.671875
-24.44,1685087752.6875
-27.80,1685087752.703125
-31.38,1685087752.71875
-35.53,1685087752.734375
-40.54,1685087752.75
-46.50,1685087752.765625
-53.19,1685087752.78125
-59.91,1685087752.796875
-65.57,1685087752.8125
-68.81,1685087752.828125
-68.45,1685087752.84375
-63.86,1685087752.859375
-55.19,1685087752.875
-43.36,1685087752.890625
-29.74,1685087752.90625
-15.78,1685087752.921875
-2.65,1685087752.9375
8.95,1685087752.953125
18.73,1685087752.96875
26.67,1685087752.984375
32.81,1685087753.0
37.22,1685087753.015625
40.03,1685087753.03125
41.47,1685087753.046875
41.88,1685087753.0625
41.64,1685087753.078125
41.06,1685087753.09375
40.29,1685087753.109375
39.33,1685087753.125
38.12,1685087753.140625
36.63,1685087753.15625
34.92,1685087753.171875
33.08,1685087753.1875
31.21,1685087753.203125
29.33,1685087753.21875
27.44,1685087753.234375
25.49,1685087753.25
23.46,1685087753.265625
21.33,1685087753.28125
18.99,1685087753.296875
16.28,1685087753.3125
12.99,1685087753.328125
8.98,1685087753.34375
4.27,1685087753.359375
-0.93,1685087753.375
-6.32,1685087753.390625
-11.59,1685087753.40625
-16.55,1685087753.421875
-21.15,1685087753.4375
-25.53,1685087753.453125
-29.93,1685087753.46875
-34.63,1685087753.484375
-39.91,1685087753.5
-45.97,1685087753.515625
-52.79,1685087753.53125
-59.97,1685087753.546875
-66.68,1685087753.5625
-71.69,1685087753.578125
-73.62,1685087753.59375
-71.35,1685087753.609375
-64.46,1685087753.625
-53.41,1685087753.640625
-39.53,1685087753.65625
-24.54,1685087753.671875
-10.04,1685087753.6875
2.88,1685087753.703125
13.84,1685087753.71875
22.94,1685087753.734375
30.47,1685087753.75
36.60,1685087753.765625
41.28,1685087753.78125
44.38,1685087753.796875
45.87,1685087753.8125
45.97,1685087753.828125
45.13,1685087753.84375
43.87,1685087753.859375
42.60,1685087753.875
41.47,1685087753.890625
40.39,1685087753.90625
39.18,1685087753.921875
37.70,1685087753.9375
35.93,1685087753.953125
34.01,1685087753.96875
32.06,1685087753.984375
30.21,1685087754.0
28.41,1685087754.015625
26.50,1685087754.03125
24.28,1685087754.046875
21.54,1685087754.0625
18.15,1685087754.078125
14.12,1685087754.09375
9.58,1685087754.109375
4.69,1685087754.125
-0.35,1685087754.140625
-5.37,1685087754.15625
-10.25,1685087754.171875
-14.94,1685087754.1875
-19.46,1685087754.203125
-23.87,1685087754.21875
-28.33,1685087754.234375
-33.06,1685087754.25
-38.35,1685087754.265625
-44.47,1685087754.28125
-51.45,1685087754.296875
-58.88,1685087754.3125
-65.77,1685087754.328125
-70.71,1685087754.34375
-72.24,1685087754.359375
-69.37,1685087754.375
-61.92,1685087754.390625
-50.67,1685087754.40625
-37.03,1685087754.421875
-22.55,1685087754.4375
-8.51,1685087754.453125
4.36,1685087754.46875
15.77,1685087754.484375
25.66,1685087754.5
33.93,1685087754.515625
40.45,1685087754.53125
45.09,1685087754.546875
47.93,1685087754.5625
49.23,1685087754.578125
49.39,1685087754.59375
48.76,1685087754.609375
47.63,1685087754.625
46.11,1685087754.640625
44.30,1685087754.65625
42.33,1685087754.671875
40.37,1685087754.6875
38.62,1685087754.703125
37.14,1685087754.71875
35.86,1685087754.734375
34.59,1685087754.75
33.10,1685087754.765625
31.18,1685087754.78125
28.73,1685087754.796875
25.76,1685087754.8125
22.37,1685087754.828125
18.71,1685087754.84375
14.86,1685087754.859375
10.88,1685087754.875
6.73,1685087754.890625
2.35,1685087754.90625
-2.27,1685087754.921875
-7.06,1685087754.9375
-11.86,1685087754.953125
-16.52,1685087754.96875
-20.94,1685087754.984375
-25.13,1685087755.0
-29.23,1685087755.015625
-33.51,1685087755.03125
-38.24,1685087755.046875
-43.71,1685087755.0625
-49.97,1685087755.078125
-56.75,1685087755.09375
-63.36,1685087755.109375
-68.67,1685087755.125
-71.35,1685087755.140625
-70.28,1685087755.15625
-64.89,1685087755.171875
-55.42,1685087755.1875
-42.86,1685087755.203125
-28.66,1685087755.21875
-14.25,1685087755.234375
-0.75,1685087755.25
11.22,1685087755.265625
21.40,1685087755.28125
29.77,1685087755.296875
36.35,1685087755.3125
41.18,1685087755.328125
44.36,1685087755.34375
46.07,1685087755.359375
46.62,1685087755.375
46.36,1685087755.390625
45.59,1685087755.40625
44.53,1685087755.421875
43.31,1685087755.4375
42.02,1685087755.453125
40.73,1685087755.46875
39.51,1685087755.484375
38.41,1685087755.5
37.42,1685087755.515625
36.44,1685087755.53125
35.29,1685087755.546875
33.76,1685087755.5625
31.70,1685087755.578125
29.08,1685087755.59375
26.01,1685087755.609375
22.66,1685087755.625
19.18,1685087755.640625
15.58,1685087755.65625
11.82,1685087755.671875
7.76,1685087755.6875
3.34,1685087755.703125
-1.37,1685087755.71875
-6.19,1685087755.734375
-10.88,1685087755.75
-15.25,1685087755.765625
-19.29,1685087755.78125
-23.10,1685087755.796875
-26.96,1685087755.8125
-31.20,1685087755.828125
-36.12,1685087755.84375
-41.84,1685087755.859375
-48.23,1685087755.875
-54.74,1685087755.890625
-60.46,1685087755.90625
-64.24,1685087755.921875
-64.97,1685087755.9375
-61.89,1685087755.953125
-54.87,1685087755.96875
-44.49,1685087755.984375
-31.91,1685087756.0
-18.55,1685087756.015625
-5.71,1685087756.03125
5.75,1685087756.046875
15.45,1685087756.0625
23.42,1685087756.078125
29.88,1685087756.09375
34.95,1685087756.109375
38.63,1685087756.125
40.78,1685087756.140625
41.36,1685087756.15625
40.54,1685087756.171875
38.76,1685087756.1875
36.61,1685087756.203125
34.62,1685087756.21875
33.08,1685087756.234375
31.96,1685087756.25
31.00,1685087756.265625
29.92,1685087756.28125
28.55,1685087756.296875
26.88,1685087756.3125
25.01,1685087756.328125
23.02,1685087756.34375
20.89,1685087756.359375
18.51,1685087756.375
15.78,1685087756.390625
12.66,1685087756.40625
9.22,1685087756.421875
5.59,1685087756.4375
1.88,1685087756.453125
-1.88,1685087756.46875
-5.73,1685087756.484375
-9.70,1685087756.5
-13.73,1685087756.515625
-17.73,1685087756.53125
-21.65,1685087756.546875
-25.56,1685087756.5625
-29.66,1685087756.578125
-34.24,1685087756.59375
-39.51,1685087756.609375
-45.44,1685087756.625
-51.74,1685087756.640625
-57.73,1685087756.65625
-62.52,1685087756.671875
-65.11,1685087756.6875
-64.55,1685087756.703125
-60.27,1685087756.71875
-52.25,1685087756.734375
-41.13,1685087756.75
-28.08,1685087756.765625
-14.55,1685087756.78125
-1.84,1685087756.796875
9.20,1685087756.8125
18.25,1685087756.828125
25.43,1685087756.84375
30.96,1685087756.859375
35.01,1685087756.875
37.60,1685087756.890625
38.69,1685087756.90625
38.40,1685087756.921875
37.08,1685087756.9375
35.26,1685087756.953125
33.44,1685087756.96875
31.97,1685087756.984375
30.90,1685087757.0
30.06,1685087757.015625
29.18,1685087757.03125
28.10,1685087757.046875
26.74,1685087757.0625
25.17,1685087757.078125
23.48,1685087757.09375
21.67,1685087757.109375
19.68,1685087757.125
17.41,1685087757.140625
14.79,1685087757.15625
11.79,1685087757.171875
8.43,1685087757.1875
4.71,1685087757.203125
0.58,1685087757.21875
-3.95,1685087757.234375
-8.82,1685087757.25
-13.79,1685087757.265625
-18.59,1685087757.28125
-23.01,1685087757.296875
-27.02,1685087757.3125
-30.86,1685087757.328125
-34.92,1685087757.34375
-39.64,1685087757.359375
-45.25,1685087757.375
-51.69,1685087757.390625
-58.46,1685087757.40625
-64.66,1685087757.421875
-69.14,1685087757.4375
-70.72,1685087757.453125
-68.52,1685087757.46875
-62.23,1685087757.484375
-52.25,1685087757.5
-39.58,1685087757.515625
-25.58,1685087757.53125
-11.57,1685087757.546875
1.41,1685087757.5625
12.75,1685087757.578125
22.16,1685087757.59375
29.59,1685087757.609375
35.06,1685087757.625
38.68,1685087757.640625
40.65,1685087757.65625
41.31,1685087757.671875
41.11,1685087757.6875
40.46,1685087757.703125
39.67,1685087757.71875
38.90,1685087757.734375
38.17,1685087757.75
37.39,1685087757.765625
36.46,1685087757.78125
35.31,1685087757.796875
33.90,1685087757.8125
32.22,1685087757.828125
30.34,1685087757.84375
28.27,1685087757.859375
26.05,1685087757.875
23.65,1685087757.890625
21.03,1685087757.90625
18.10,1685087757.921875
14.79,1685087757.9375
11.02,1685087757.953125
6.80,1685087757.96875
2.20,1685087757.984375
-2.65,1685087758.0
-7.55,1685087758.015625
-12.33,1685087758.03125
-16.87,1685087758.046875
-21.18,1685087758.0625
-25.32,1685087758.078125
-29.41,1685087758.09375
-33.59,1685087758.109375
-38.02,1685087758.125
-42.88,1685087758.140625
-48.37,1685087758.15625
-54.47,1685087758.171875
-60.80,1685087758.1875
-66.51,1685087758.203125
-70.34,1685087758.21875
-70.98,1685087758.234375
-67.52,1685087758.25
-59.85,1685087758.265625
-48.67,1685087758.28125
-35.27,1685087758.296875
-21.12,1685087758.3125
-7.41,1685087758.328125
5.06,1685087758.34375
15.89,1685087758.359375
24.94,1685087758.375
32.15,1685087758.390625
37.56,1685087758.40625
41.26,1685087758.421875
43.47,1685087758.4375
44.44,1685087758.453125
44.46,1685087758.46875
43.78,1685087758.484375
42.59,1685087758.5
41.08,1685087758.515625
39.40,1685087758.53125
37.68,1685087758.546875
36.04,1685087758.5625
34.51,1685087758.578125
33.08,1685087758.59375
31.72,1685087758.609375
30.35,1685087758.625
28.87,1685087758.640625
27.11,1685087758.65625
24.90,1685087758.671875
22.17,1685087758.6875
18.95,1685087758.703125
15.43,1685087758.71875
11.78,1685087758.734375
8.13,1685087758.75
4.43,1685087758.765625
0.54,1685087758.78125
-3.71,1685087758.796875
-8.38,1685087758.8125
-13.33,1685087758.828125
-18.27,1685087758.84375
-22.93,1685087758.859375
-27.13,1685087758.875
-30.93,1685087758.890625
-34.62,1685087758.90625
-38.63,1685087758.921875
-43.35,1685087758.9375
-48.98,1685087758.953125
-55.37,1685087758.96875
-61.92,1685087758.984375
-67.59,1685087759.0
-71.10,1685087759.015625
-71.29,1685087759.03125
-67.43,1685087759.046875
-59.50,1685087759.0625
-48.24,1685087759.078125
-34.88,1685087759.09375
-20.85,1685087759.109375
-7.33,1685087759.125
4.93,1685087759.140625
15.62,1685087759.15625
24.65,1685087759.171875
32.02,1685087759.1875
37.69,1685087759.203125
41.64,1685087759.21875
43.94,1685087759.234375
44.87,1685087759.25
44.81,1685087759.265625
44.16,1685087759.28125
43.24,1685087759.296875
42.18,1685087759.3125
40.99,1685087759.328125
39.64,1685087759.34375
38.13,1685087759.359375
36.54,1685087759.375
35.01,1685087759.390625
33.60,1685087759.40625
32.28,1685087759.421875
30.88,1685087759.4375
29.16,1685087759.453125
26.92,1685087759.46875
24.08,1685087759.484375
20.72,1685087759.5
17.10,1685087759.515625
13.49,1685087759.53125
10.09,1685087759.546875
6.88,1685087759.5625
3.66,1685087759.578125
0.10,1685087759.59375
-4.03,1685087759.609375
-8.77,1685087759.625
-13.89,1685087759.640625
-18.98,1685087759.65625
-23.62,1685087759.671875
-27.59,1685087759.6875
-31.00,1685087759.703125
-34.26,1685087759.71875
-37.91,1685087759.734375
-42.46,1685087759.75
-48.11,1685087759.765625
-54.62,1685087759.78125
-61.28,1685087759.796875
-67.01,1685087759.8125
-70.64,1685087759.828125
-71.13,1685087759.84375
-67.84,1685087759.859375
-60.76,1685087759.875
-50.42,1685087759.890625
-37.83,1685087759.90625
-24.20,1685087759.921875
-10.70,1685087759.9375
1.80,1685087759.953125
12.76,1685087759.96875
21.99,1685087759.984375
29.52,1685087760.0
35.44,1685087760.015625
39.86,1685087760.03125
42.82,1685087760.046875
44.42,1685087760.0625
44.79,1685087760.078125
44.21,1685087760.09375
42.99,1685087760.109375
41.45,1685087760.125
39.79,1685087760.140625
38.16,1685087760.15625
36.58,1685087760.171875
35.11,1685087760.1875
33.78,1685087760.203125
32.67,1685087760.21875
31.77,1685087760.234375
30.95,1685087760.25
29.95,1685087760.265625
28.50,1685087760.28125
26.38,1685087760.296875
23.59,1685087760.3125
20.29,1685087760.328125
16.73,1685087760.34375
13.15,1685087760.359375
9.59,1685087760.375
5.97,1685087760.390625
2.14,1685087760.40625
-2.01,1685087760.421875
-6.44,1685087760.4375
-10.98,1685087760.453125
-15.37,1685087760.46875
-19.38,1685087760.484375
-22.98,1685087760.5
-26.34,1685087760.515625
-29.83,1685087760.53125
-33.93,1685087760.546875
-38.99,1685087760.5625
-45.09,1685087760.578125
-51.82,1685087760.59375
-58.30,1685087760.609375
-63.27,1685087760.625
-65.44,1685087760.640625
-63.81,1685087760.65625
-58.02,1685087760.671875
-48.47,1685087760.6875
-36.24,1685087760.703125
-22.77,1685087760.71875
-9.44,1685087760.734375
2.76,1685087760.75
13.28,1685087760.765625
22.00,1685087760.78125
28.97,1685087760.796875
34.24,1685087760.8125
37.84,1685087760.828125
39.78,1685087760.84375
40.22,1685087760.859375
39.48,1685087760.875
38.01,1685087760.890625
36.26,1685087760.90625
34.57,1685087760.921875
33.12,1685087760.9375
31.97,1685087760.953125
31.12,1685087760.96875
30.53,1685087760.984375
30.12,1685087761.0
29.69,1685087761.015625
28.97,1685087761.03125
27.70,1685087761.046875
25.71,1685087761.0625
23.02,1685087761.078125
19.80,1685087761.09375
16.29,1685087761.109375
12.66,1685087761.125
8.97,1685087761.140625
5.25,1685087761.15625
1.49,1685087761.171875
-2.25,1685087761.1875
-5.87,1685087761.203125
-9.35,1685087761.21875
-12.74,1685087761.234375
-16.19,1685087761.25
-19.85,1685087761.265625
-23.79,1685087761.28125
-27.96,1685087761.296875
-32.35,1685087761.3125
-37.02,1685087761.328125
-42.15,1685087761.34375
-47.85,1685087761.359375
-53.95,1685087761.375
-59.74,1685087761.390625
-64.07,1685087761.40625
-65.60,1685087761.421875
-63.33,1685087761.4375
-56.96,1685087761.453125
-47.07,1685087761.46875
-34.92,1685087761.484375
-22.00,1685087761.5
-9.56,1685087761.515625
1.65,1685087761.53125
11.43,1685087761.546875
19.83,1685087761.5625
26.97,1685087761.578125
32.80,1685087761.59375
37.15,1685087761.609375
39.86,1685087761.625
40.96,1685087761.640625
40.68,1685087761.65625
39.46,1685087761.671875
37.81,1685087761.6875
36.11,1685087761.703125
34.57,1685087761.71875
33.24,1685087761.734375
32.08,1685087761.75
31.03,1685087761.765625
30.02,1685087761.78125
29.00,1685087761.796875
27.88,1685087761.8125
26.55,1685087761.828125
24.83,1685087761.84375
22.67,1685087761.859375
20.06,1685087761.875
17.11,1685087761.890625
13.97,1685087761.90625
10.72,1685087761.921875
7.35,1685087761.9375
3.71,1685087761.953125
-0.36,1685087761.96875
-4.90,1685087761.984375
-9.79,1685087762.0
-14.76,1685087762.015625
-19.54,1685087762.03125
-23.98,1685087762.046875
-28.12,1685087762.0625
-32.18,1685087762.078125
-36.46,1685087762.09375
-41.21,1685087762.109375
-46.61,1685087762.125
-52.64,1685087762.140625
-58.99,1685087762.15625
-64.96,1685087762.171875
-69.50,1685087762.1875
-71.39,1685087762.203125
-69.56,1685087762.21875
-63.50,1685087762.234375
-53.51,1685087762.25
-40.63,1685087762.265625
-26.37,1685087762.28125
-12.19,1685087762.296875
0.79,1685087762.3125
12.03,1685087762.328125
21.38,1685087762.34375
28.96,1685087762.359375
34.89,1685087762.375
39.26,1685087762.390625
42.09,1685087762.40625
43.43,1685087762.421875
43.48,1685087762.4375
42.59,1685087762.453125
41.21,1685087762.46875
39.78,1685087762.484375
38.61,1685087762.5
37.74,1685087762.515625
37.05,1685087762.53125
36.35,1685087762.546875
35.43,1685087762.5625
34.23,1685087762.578125
32.78,1685087762.59375
31.10,1685087762.609375
29.21,1685087762.625
27.05,1685087762.640625
24.54,1685087762.65625
21.60,1685087762.671875
18.30,1685087762.6875
14.75,1685087762.703125
11.09,1685087762.71875
7.41,1685087762.734375
3.68,1685087762.75
-0.25,1685087762.765625
-4.51,1685087762.78125
-9.11,1685087762.796875
-13.87,1685087762.8125
-18.52,1685087762.828125
-22.83,1685087762.84375
-26.74,1685087762.859375
-30.44,1685087762.875
-34.32,1685087762.890625
-38.79,1685087762.90625
-44.09,1685087762.921875
-50.18,1685087762.9375
-56.64,1685087762.953125
-62.72,1685087762.96875
-67.35,1685087762.984375
-69.37,1685087763.0
-67.78,1685087763.015625
-62.07,1685087763.03125
-52.47,1685087763.046875
-39.92,1685087763.0625
-25.86,1685087763.078125
-11.79,1685087763.09375
1.17,1685087763.109375
12.41,1685087763.125
21.85,1685087763.140625
29.57,1685087763.15625
35.67,1685087763.171875
40.14,1685087763.1875
42.97,1685087763.203125
44.26,1685087763.21875
44.33,1685087763.234375
43.67,1685087763.25
42.71,1685087763.265625
41.74,1685087763.28125
40.82,1685087763.296875
39.82,1685087763.3125
38.65,1685087763.328125
37.31,1685087763.34375
35.94,1685087763.359375
34.70,1685087763.375
33.68,1685087763.390625
32.81,1685087763.40625
31.85,1685087763.421875
30.52,1685087763.4375
28.57,1685087763.453125
25.94,1685087763.46875
22.74,1685087763.484375
19.19,1685087763.5
15.53,1685087763.515625
11.86,1685087763.53125
8.08,1685087763.546875
4.01,1685087763.5625
-0.50,1685087763.578125
-5.46,1685087763.59375
-10.63,1685087763.609375
-15.67,1685087763.625
-20.26,1685087763.640625
-24.28,1685087763.65625
-27.85,1685087763.671875
-31.27,1685087763.6875
-34.94,1685087763.703125
-39.25,1685087763.71875
-44.46,1685087763.734375
-50.63,1685087763.75
-57.46,1685087763.765625
-64.19,1685087763.78125
-69.62,1685087763.796875
-72.36,1685087763.8125
-71.19,1685087763.828125
-65.50,1685087763.84375
-55.59,1685087763.859375
-42.56,1685087763.875
-28.00,1685087763.890625
-13.45,1685087763.90625
-0.07,1685087763.921875
11.60,1685087763.9375
21.42,1685087763.953125
29.47,1685087763.96875
35.83,1685087763.984375
40.52,1685087764.0
43.53,1685087764.015625
44.99,1685087764.03125
45.16,1685087764.046875
44.43,1685087764.0625
43.21,1685087764.078125
41.84,1685087764.09375
40.48,1685087764.109375
39.17,1685087764.125
37.91,1685087764.140625
36.68,1685087764.15625
35.54,1685087764.171875
34.56,1685087764.1875
33.74,1685087764.203125
32.96,1685087764.21875
31.97,1685087764.234375
30.45,1685087764.25
28.15,1685087764.265625
25.05,1685087764.28125
21.39,1685087764.296875
17.54,1685087764.3125
13.89,1685087764.328125
10.62,1685087764.34375
7.63,1685087764.359375
4.63,1685087764.375
1.31,1685087764.390625
-2.51,1685087764.40625
-6.75,1685087764.421875
-11.17,1685087764.4375
-15.49,1685087764.453125
-19.54,1685087764.46875
-23.32,1685087764.484375
-27.00,1685087764.5
-30.85,1685087764.515625
-35.20,1685087764.53125
-40.29,1685087764.546875
-46.22,1685087764.5625
-52.75,1685087764.578125
-59.16,1685087764.59375
-64.30,1685087764.609375
-66.79,1685087764.625
-65.44,1685087764.640625
-59.73,1685087764.65625
-50.00,1685087764.671875
-37.38,1685087764.6875
-23.48,1685087764.703125
-9.81,1685087764.71875
2.55,1685087764.734375
13.05,1685087764.75
21.62,1685087764.765625
28.35,1685087764.78125
33.36,1685087764.796875
36.66,1685087764.8125
38.34,1685087764.828125
38.54,1685087764.84375
37.58,1685087764.859375
35.95,1685087764.875
34.09,1685087764.890625
32.41,1685087764.90625
31.08,1685087764.921875
30.11,1685087764.9375
29.39,1685087764.953125
28.72,1685087764.96875
28.00,1685087764.984375
27.11,1685087765.0
26.03,1685087765.015625
24.71,1685087765.03125
23.12,1685087765.046875
21.25,1685087765.0625
19.09,1685087765.078125
16.69,1685087765.09375
14.07,1685087765.109375
11.26,1685087765.125
8.21,1685087765.140625
4.83,1685087765.15625
1.05,1685087765.171875
-3.07,1685087765.1875
-7.36,1685087765.203125
-11.57,1685087765.21875
-15.44,1685087765.234375
-18.88,1685087765.25
-21.98,1685087765.265625
-25.02,1685087765.28125
-28.44,1685087765.296875
-32.60,1685087765.3125
-37.73,1685087765.328125
-43.73,1685087765.34375
-50.12,1685087765.359375
-55.98,1685087765.375
-60.15,1685087765.390625
-61.47,1685087765.40625
-59.07,1685087765.421875
-52.75,1685087765.4375
-43.00,1685087765.453125
-30.94,1685087765.46875
-17.98,1685087765.484375
-5.42,1685087765.5
5.82,1685087765.515625
15.23,1685087765.53125
22.71,1685087765.546875
28.30,1685087765.5625
32.05,1685087765.578125
34.09,1685087765.59375
34.56,1685087765.609375
33.79,1685087765.625
32.28,1685087765.640625
30.56,1685087765.65625
29.12,1685087765.671875
28.20,1685087765.6875
27.78,1685087765.703125
27.64,1685087765.71875
27.45,1685087765.734375
26.88,1685087765.75
25.77,1685087765.765625
24.07,1685087765.78125
21.93,1685087765.796875
19.52,1685087765.8125
17.09,1685087765.828125
14.74,1685087765.84375
12.47,1685087765.859375
10.13,1685087765.875
7.47,1685087765.890625
4.32,1685087765.90625
0.61,1685087765.921875
-3.55,1685087765.9375
-7.94,1685087765.953125
-12.37,1685087765.96875
-16.72,1685087765.984375
-20.98,1685087766.0
-25.21,1685087766.015625
-29.48,1685087766.03125
-33.85,1685087766.046875
-38.48,1685087766.0625
-43.59,1685087766.078125
-49.29,1685087766.09375
-55.41,1685087766.109375
-61.23,1685087766.125
-65.52,1685087766.140625
-66.84,1685087766.15625
-64.01,1685087766.171875
-56.66,1685087766.1875
-45.41,1685087766.203125
-31.72,1685087766.21875
-17.37,1685087766.234375
-3.86,1685087766.25
7.91,1685087766.265625
17.70,1685087766.28125
25.67,1685087766.296875
32.02,1685087766.3125
36.80,1685087766.328125
39.92,1685087766.34375
41.34,1685087766.359375
41.28,1685087766.375
40.20,1685087766.390625
38.70,1685087766.40625
37.24,1685087766.421875
36.07,1685087766.4375
35.08,1685087766.453125
34.03,1685087766.46875
32.66,1685087766.484375
30.88,1685087766.5
28.82,1685087766.515625
26.65,1685087766.53125
24.53,1685087766.546875
22.50,1685087766.5625
20.50,1685087766.578125
18.39,1685087766.59375
16.03,1685087766.609375
13.31,1685087766.625
10.19,1685087766.640625
6.68,1685087766.65625
2.80,1685087766.671875
-1.33,1685087766.6875
-5.60,1685087766.703125
-9.90,1685087766.71875
-14.15,1685087766.734375
-18.31,1685087766.75
-22.40,1685087766.765625
-26.51,1685087766.78125
-30.87,1685087766.796875
-35.76,1685087766.8125
-41.47,1685087766.828125
-48.07,1685087766.84375
-55.17,1685087766.859375
-61.87,1685087766.875
-66.82,1685087766.890625
-68.63,1685087766.90625
-66.29,1685087766.921875
-59.58,1685087766.9375
-49.11,1685087766.953125
-36.18,1685087766.96875
-22.31,1685087766.984375
-8.84,1685087767.0
3.36,1685087767.015625
13.89,1685087767.03125
22.70,1685087767.046875
29.87,1685087767.0625
35.44,1685087767.078125
39.39,1685087767.09375
41.69,1685087767.109375
42.42,1685087767.125
41.86,1685087767.140625
40.47,1685087767.15625
38.77,1685087767.171875
37.19,1685087767.1875
35.95,1685087767.203125
35.02,1685087767.21875
34.23,1685087767.234375
33.35,1685087767.25
32.24,1685087767.265625
30.84,1685087767.28125
29.17,1685087767.296875
27.30,1685087767.3125
25.29,1685087767.328125
23.19,1685087767.34375
21.01,1685087767.359375
18.69,1685087767.375
16.13,1685087767.390625
13.15,1685087767.40625
9.56,1685087767.421875
5.31,1685087767.4375
0.50,1685087767.453125
-4.60,1685087767.46875
-9.66,1685087767.484375
-14.39,1685087767.5
-18.68,1685087767.515625
-22.67,1685087767.53125
-26.67,1685087767.546875
-31.08,1685087767.5625
-36.23,1685087767.578125
-42.25,1685087767.59375
-48.99,1685087767.609375
-55.95,1685087767.625
-62.27,1685087767.640625
-66.91,1685087767.65625
-68.75,1685087767.671875
-66.91,1685087767.6875
-61.01,1685087767.703125
-51.30,1685087767.71875
-38.71,1685087767.734375
-24.57,1685087767.75
-10.31,1685087767.765625
2.87,1685087767.78125
14.23,1685087767.796875
23.50,1685087767.8125
30.75,1685087767.828125
36.17,1685087767.84375
39.94,1685087767.859375
42.21,1685087767.875
43.12,1685087767.890625
42.87,1685087767.90625
41.81,1685087767.921875
40.33,1685087767.9375
38.83,1685087767.953125
37.54,1685087767.96875
36.50,1685087767.984375
35.58,1685087768.0
34.57,1685087768.015625
33.26,1685087768.03125
31.62,1685087768.046875
29.76,1685087768.0625
27.87,1685087768.078125
26.10,1685087768.09375
24.46,1685087768.109375
22.77,1685087768.125
20.72,1685087768.140625
18.04,1685087768.15625
14.60,1685087768.171875
10.48,1685087768.1875
5.90,1685087768.203125
1.12,1685087768.21875
-3.70,1685087768.234375
-8.46,1685087768.25
-13.05,1685087768.265625
-17.38,1685087768.28125
-21.32,1685087768.296875
-24.88,1685087768.3125
-28.31,1685087768.328125
-32.09,1685087768.34375
-36.75,1685087768.359375
-42.57,1685087768.375
-49.26,1685087768.390625
-55.91,1685087768.40625
-61.12,1685087768.421875
-63.47,1685087768.4375
-61.97,1685087768.453125
-56.35,1685087768.46875
-47.16,1685087768.484375
-35.51,1685087768.5
-22.76,1685087768.515625
-10.15,1685087768.53125
1.40,1685087768.546875
11.42,1685087768.5625
19.78,1685087768.578125
26.56,1685087768.59375
31.87,1685087768.609375
35.78,1685087768.625
38.26,1685087768.640625
39.33,1685087768.65625
39.09,1685087768.671875
37.85,1685087768.6875
36.08,1685087768.703125
34.23,1685087768.71875
32.63,1685087768.734375
31.38,1685087768.75
30.35,1685087768.765625
29.32,1685087768.78125
28.13,1685087768.796875
26.77,1685087768.8125
25.36,1685087768.828125
24.09,1685087768.84375
23.01,1685087768.859375
22.00,1685087768.875
20.85,1685087768.890625
19.31,1685087768.90625
17.30,1685087768.921875
14.92,1685087768.9375
12.40,1685087768.953125
9.96,1685087768.96875
7.70,1685087768.984375
5.52,1685087769.0
3.26,1685087769.015625
0.77,1685087769.03125
-1.92,1685087769.046875
-4.71,1685087769.0625
-7.42,1685087769.078125
-10.01,1685087769.09375
-12.60,1685087769.109375
-15.44,1685087769.125
-18.69,1685087769.140625
-22.24,1685087769.15625
-25.46,1685087769.171875
-27.33,1685087769.1875
-26.56,1685087769.203125
-22.07,1685087769.21875
-13.28,1685087769.234375
-0.35,1685087769.25
16.01,1685087769.265625
34.71,1685087769.28125
54.53,1685087769.296875
74.11,1685087769.3125
91.80,1685087769.328125
105.52,1685087769.34375
112.93,1685087769.359375
112.06,1685087769.375
102.14,1685087769.390625
84.20,1685087769.40625
61.06,1685087769.421875
36.56,1685087769.4375
14.43,1685087769.453125
-2.86,1685087769.46875
-14.50,1685087769.484375
-21.14,1685087769.5
-24.25,1685087769.515625
-25.45,1685087769.53125
-26.23,1685087769.546875
-27.84,1685087769.5625
-31.36,1685087769.578125
-37.53,1685087769.59375
-46.45,1685087769.609375
-57.36,1685087769.625
-68.69,1685087769.640625
-78.63,1685087769.65625
-85.82,1685087769.671875
-89.83,1685087769.6875
-91.17,1685087769.703125
-90.93,1685087769.71875
-90.03,1685087769.734375
-88.90,1685087769.75
-87.36,1685087769.765625
-85.01,1685087769.78125
-81.64,1685087769.796875
-77.47,1685087769.8125
-73.14,1685087769.828125
-69.35,1685087769.84375
-66.59,1685087769.859375
-64.97,1685087769.875
-64.29,1685087769.890625
-64.23,1685087769.90625
-64.55,1685087769.921875
-65.10,1685087769.9375
-65.63,1685087769.953125
-65.72,1685087769.96875
-64.69,1685087769.984375
-61.78,1685087770.0
-56.41,1685087770.015625
-48.43,1685087770.03125
-38.26,1685087770.046875
-26.68,1685087770.0625
-14.66,1685087770.078125
-3.06,1685087770.09375
7.49,1685087770.109375
16.66,1685087770.125
24.30,1685087770.140625
30.43,1685087770.15625
35.13,1685087770.171875
38.56,1685087770.1875
40.92,1685087770.203125
42.46,1685087770.21875
43.39,1685087770.234375
43.87,1685087770.25
44.03,1685087770.265625
43.90,1685087770.28125
43.50,1685087770.296875
42.89,1685087770.3125
42.15,1685087770.328125
41.41,1685087770.34375
40.68,1685087770.359375
39.87,1685087770.375
38.74,1685087770.390625
36.98,1685087770.40625
34.34,1685087770.421875
30.77,1685087770.4375
26.45,1685087770.453125
21.77,1685087770.46875
17.13,1685087770.484375
12.81,1685087770.5
8.91,1685087770.515625
5.28,1685087770.53125
1.61,1685087770.546875
-2.51,1685087770.5625
-7.46,1685087770.578125
-13.54,1685087770.59375
-20.76,1685087770.609375
-28.72,1685087770.625
-36.54,1685087770.640625
-42.89,1685087770.65625
-46.36,1685087770.671875
-45.85,1685087770.6875
-41.01,1685087770.703125
-32.31,1685087770.71875
-20.99,1685087770.734375
-8.59,1685087770.75
3.54,1685087770.765625
14.52,1685087770.78125
24.04,1685087770.796875
32.11,1685087770.8125
38.84,1685087770.828125
44.23,1685087770.84375
48.20,1685087770.859375
50.73,1685087770.875
51.98,1685087770.890625
52.33,1685087770.90625
52.20,1685087770.921875
51.89,1685087770.9375
51.51,1685087770.953125
50.90,1685087770.96875
49.79,1685087770.984375
48.00,1685087771.0
45.51,1685087771.015625
42.51,1685087771.03125
39.31,1685087771.046875
36.23,1685087771.0625
33.52,1685087771.078125
31.27,1685087771.09375
29.40,1685087771.109375
27.66,1685087771.125
25.71,1685087771.140625
23.23,1685087771.15625
19.98,1685087771.171875
15.91,1685087771.1875
11.20,1685087771.203125
6.21,1685087771.21875
1.36,1685087771.234375
-2.99,1685087771.25
-6.66,1685087771.265625
-9.71,1685087771.28125
-12.40,1685087771.296875
-15.08,1685087771.3125
-18.07,1685087771.328125
-21.55,1685087771.34375
-25.40,1685087771.359375
-29.11,1685087771.375
-31.81,1685087771.390625
-32.43,1685087771.40625
-29.94,1685087771.421875
-23.67,1685087771.4375
-13.57,1685087771.453125
-0.31,1685087771.46875
14.85,1685087771.484375
30.29,1685087771.5
44.41,1685087771.515625
55.99,1685087771.53125
64.37,1685087771.546875
69.46,1685087771.5625
71.59,1685087771.578125
71.29,1685087771.59375
69.09,1685087771.609375
65.48,1685087771.625
60.96,1685087771.640625
56.14,1685087771.65625
51.66,1685087771.671875
48.08,1685087771.6875
45.64,1685087771.703125
44.08,1685087771.71875
42.73,1685087771.734375
40.75,1685087771.75
37.41,1685087771.765625
32.39,1685087771.78125
25.78,1685087771.796875
17.87,1685087771.8125
8.83,1685087771.828125
-1.47,1685087771.84375
-13.46,1685087771.859375
-27.66,1685087771.875
-44.19,1685087771.890625
-62.49,1685087771.90625
-81.20,1685087771.921875
-98.50,1685087771.9375
-112.62,1685087771.953125
-122.48,1685087771.96875
-128.06,1685087771.984375
-130.35,1685087772.0
-130.95,1685087772.015625
-131.40,1685087772.03125
-132.61,1685087772.046875
-134.57,1685087772.0625
-136.35,1685087772.078125
-136.51,1685087772.09375
-133.50,1685087772.109375
-126.21,1685087772.125
-114.29,1685087772.140625
-98.33,1685087772.15625
-79.71,1685087772.171875
-60.26,1685087772.1875
-41.77,1685087772.203125
-25.64,1685087772.21875
-12.77,1685087772.234375
-3.65,1685087772.25
1.47,1685087772.265625
2.64,1685087772.28125
0.35,1685087772.296875
-4.17,1685087772.3125
-9.07,1685087772.328125
-12.34,1685087772.34375
-12.57,1685087772.359375
-9.56,1685087772.375
-4.38,1685087772.390625
1.25,1685087772.40625
5.83,1685087772.421875
8.72,1685087772.4375
10.19,1685087772.453125
10.88,1685087772.46875
11.11,1685087772.484375
10.56,1685087772.5
8.48,1685087772.515625
4.27,1685087772.53125
-2.00,1685087772.546875
-9.57,1685087772.5625
-17.27,1685087772.578125
-24.08,1685087772.59375
-29.39,1685087772.609375
-33.05,1685087772.625
-35.05,1685087772.640625
-35.30,1685087772.65625
-33.68,1685087772.671875
-30.18,1685087772.6875
-25.13,1685087772.703125
-19.32,1685087772.71875
-13.78,1685087772.734375
-9.41,1685087772.75
-6.63,1685087772.765625
-5.27,1685087772.78125
-4.62,1685087772.796875
-3.81,1685087772.8125
-2.07,1685087772.828125
0.98,1685087772.84375
5.38,1685087772.859375
10.99,1685087772.875
17.59,1685087772.890625
25.09,1685087772.90625
33.46,1685087772.921875
42.63,1685087772.9375
52.33,1685087772.953125
62.06,1685087772.96875
71.19,1685087772.984375
79.12,1685087773.0
85.59,1685087773.015625
90.73,1685087773.03125
95.05,1685087773.046875
99.26,1685087773.0625
104.13,1685087773.078125
110.33,1685087773.09375
118.44,1685087773.109375
128.92,1685087773.125
141.76,1685087773.140625
156.10,1685087773.15625
169.77,1685087773.171875
179.54,1685087773.1875
181.88,1685087773.203125
174.27,1685087773.21875
156.34,1685087773.234375
130.19,1685087773.25
99.82,1685087773.265625
69.84,1685087773.28125
44.11,1685087773.296875
24.89,1685087773.3125
12.94,1685087773.328125
7.91,1685087773.34375
8.99,1685087773.359375
15.25,1685087773.375
25.53,1685087773.390625
38.29,1685087773.40625
51.56,1685087773.421875
63.22,1685087773.4375
71.52,1685087773.453125
75.58,1685087773.46875
75.63,1685087773.484375
72.90,1685087773.5
69.16,1685087773.515625
66.03,1685087773.53125
64.40,1685087773.546875
64.12,1685087773.5625
64.37,1685087773.578125
64.18,1685087773.59375
62.99,1685087773.609375
60.89,1685087773.625
58.37,1685087773.640625
55.84,1685087773.65625
53.23,1685087773.671875
50.10,1685087773.6875
46.01,1685087773.703125
40.88,1685087773.71875
35.09,1685087773.734375
29.22,1685087773.75
23.58,1685087773.765625
18.09,1685087773.78125
12.39,1685087773.796875
6.25,1685087773.8125
-0.13,1685087773.828125
-6.17,1685087773.84375
-11.32,1685087773.859375
-15.56,1685087773.875
-19.48,1685087773.890625
-24.11,1685087773.90625
-30.27,1685087773.921875
-38.19,1685087773.9375
-47.29,1685087773.953125
-56.52,1685087773.96875
-64.73,1685087773.984375
-71.09,1685087774.0
-75.25,1685087774.015625
-77.25,1685087774.03125
-77.31,1685087774.046875
-75.63,1685087774.0625
-72.33,1685087774.078125
-67.42,1685087774.09375
-60.99,1685087774.109375
-53.31,1685087774.125
-44.91,1685087774.140625
-36.51,1685087774.15625
-28.89,1685087774.171875
-22.59,1685087774.1875
-17.75,1685087774.203125
-14.09,1685087774.21875
-11.07,1685087774.234375
-8.08,1685087774.25
-4.68,1685087774.265625
-0.71,1685087774.28125
3.73,1685087774.296875
8.49,1685087774.3125
13.42,1685087774.328125
18.43,1685087774.34375
23.44,1685087774.359375
28.25,1685087774.375
32.49,1685087774.390625
35.66,1685087774.40625
37.36,1685087774.421875
37.41,1685087774.4375
36.00,1685087774.453125
33.63,1685087774.46875
30.83,1685087774.484375
28.02,1685087774.5
25.30,1685087774.515625
22.55,1685087774.53125
19.60,1685087774.546875
16.39,1685087774.5625
13.06,1685087774.578125
9.79,1685087774.59375
6.74,1685087774.609375
3.84,1685087774.625
0.92,1685087774.640625
-2.17,1685087774.65625
-5.46,1685087774.671875
-8.76,1685087774.6875
-11.83,1685087774.703125
-14.53,1685087774.71875
-16.92,1685087774.734375
-19.25,1685087774.75
-21.79,1685087774.765625
-24.67,1685087774.78125
-27.78,1685087774.796875
-30.96,1685087774.8125
-34.03,1685087774.828125
-36.95,1685087774.84375
-39.79,1685087774.859375
-42.59,1685087774.875
-45.20,1685087774.890625
-47.29,1685087774.90625
-48.36,1685087774.921875
-48.02,1685087774.9375
-46.11,1685087774.953125
-42.85,1685087774.96875
-38.71,1685087774.984375
-34.29,1685087775.0
-30.09,1685087775.015625
-26.35,1685087775.03125
-23.13,1685087775.046875
-20.31,1685087775.0625
-17.78,1685087775.078125
-15.57,1685087775.09375
-13.82,1685087775.109375
-12.73,1685087775.125
-12.41,1685087775.140625
-12.79,1685087775.15625
-13.65,1685087775.171875
-14.66,1685087775.1875
-15.53,1685087775.203125
-16.06,1685087775.21875
-16.21,1685087775.234375
-16.05,1685087775.25
-15.75,1685087775.265625
-15.52,1685087775.28125
-15.55,1685087775.296875
-15.99,1685087775.3125
-16.88,1685087775.328125
-18.10,1685087775.34375
-19.52,1685087775.359375
-20.92,1685087775.375
-22.22,1685087775.390625
-23.43,1685087775.40625
-24.65,1685087775.421875
-25.99,1685087775.4375
-27.52,1685087775.453125
-29.28,1685087775.46875
-31.22,1685087775.484375
-33.22,1685087775.5
-35.11,1685087775.515625
-36.58,1685087775.53125
-37.30,1685087775.546875
-36.92,1685087775.5625
-35.25,1685087775.578125
-32.29,1685087775.59375
-28.31,1685087775.609375
-23.80,1685087775.625
-19.25,1685087775.640625
-15.03,1685087775.65625
-11.29,1685087775.671875
-7.96,1685087775.6875
-4.96,1685087775.703125
-2.26,1685087775.71875
-0.00,1685087775.734375
1.52,1685087775.75
2.12,1685087775.765625
1.80,1685087775.78125
0.82,1685087775.796875
-0.37,1685087775.8125
-1.36,1685087775.828125
-1.94,1685087775.84375
-2.20,1685087775.859375
-2.43,1685087775.875
-2.89,1685087775.890625
-3.74,1685087775.90625
-4.96,1685087775.921875
-6.43,1685087775.9375
-8.03,1685087775.953125
-9.72,1685087775.96875
-11.49,1685087775.984375
-13.36,1685087776.0
-15.28,1685087776.015625
-17.20,1685087776.03125
-19.09,1685087776.046875
-21.02,1685087776.0625
-23.20,1685087776.078125
-25.85,1685087776.09375
-29.13,1685087776.109375
-32.98,1685087776.125
-37.04,1685087776.140625
-40.68,1685087776.15625
-43.21,1685087776.171875
-44.05,1685087776.1875
-42.96,1685087776.203125
-40.05,1685087776.21875
-35.73,1685087776.234375
-30.55,1685087776.25
-24.99,1685087776.265625
-19.47,1685087776.28125
-14.27,1685087776.296875
-9.61,1685087776.3125
