1683446126.00,timestamp
-0.00,1683446126.0
-0.00,1683446126.015625
-0.00,1683446126.03125
-0.00,1683446126.046875
-0.00,1683446126.0625
-0.00,1683446126.078125
-0.00,1683446126.09375
-0.00,1683446126.109375
-0.00,1683446126.125
-0.00,1683446126.140625
0.00,1683446126.15625
0.01,1683446126.171875
0.01,1683446126.1875
-0.00,1683446126.203125
-0.03,1683446126.21875
-0.05,1683446126.234375
-0.05,1683446126.25
0.00,1683446126.265625
0.13,1683446126.28125
0.36,1683446126.296875
0.66,1683446126.3125
1.01,1683446126.328125
1.37,1683446126.34375
1.72,1683446126.359375
2.06,1683446126.375
2.40,1683446126.390625
2.79,1683446126.40625
3.24,1683446126.421875
3.80,1683446126.4375
4.42,1683446126.453125
5.06,1683446126.46875
5.66,1683446126.484375
6.20,1683446126.5
6.68,1683446126.515625
7.15,1683446126.53125
7.68,1683446126.546875
8.31,1683446126.5625
9.14,1683446126.578125
10.09,1683446126.59375
11.04,1683446126.609375
11.88,1683446126.625
12.56,1683446126.640625
13.14,1683446126.65625
13.76,1683446126.671875
14.65,1683446126.6875
15.96,1683446126.703125
17.91,1683446126.71875
20.32,1683446126.734375
22.90,1683446126.75
25.38,1683446126.765625
27.58,1683446126.78125
29.57,1683446126.796875
31.68,1683446126.8125
34.32,1683446126.828125
37.81,1683446126.84375
42.54,1683446126.859375
48.15,1683446126.875
54.10,1683446126.890625
59.83,1683446126.90625
64.97,1683446126.921875
69.58,1683446126.9375
74.14,1683446126.953125
79.34,1683446126.96875
85.71,1683446126.984375
93.76,1683446127.0
103.00,1683446127.015625
112.62,1683446127.03125
121.73,1683446127.046875
129.77,1683446127.0625
136.75,1683446127.078125
143.30,1683446127.09375
150.75,1683446127.109375
157.77,1683446127.125
166.64,1683446127.140625
177.95,1683446127.15625
191.79,1683446127.171875
206.97,1683446127.1875
220.57,1683446127.203125
228.25,1683446127.21875
225.36,1683446127.234375
208.53,1683446127.25
176.87,1683446127.265625
132.76,1683446127.28125
80.05,1683446127.296875
23.07,1683446127.3125
-34.94,1683446127.328125
-92.44,1683446127.34375
-149.16,1683446127.359375
-205.23,1683446127.375
-260.37,1683446127.390625
-313.74,1683446127.40625
-363.87,1683446127.421875
-409.83,1683446127.4375
-450.91,1683446127.453125
-486.50,1683446127.46875
-515.74,1683446127.484375
-537.23,1683446127.5
-549.22,1683446127.515625
-549.96,1683446127.53125
-538.37,1683446127.546875
-514.21,1683446127.5625
-478.67,1683446127.578125
-433.88,1683446127.59375
-382.45,1683446127.609375
-327.02,1683446127.625
-269.84,1683446127.640625
-212.63,1683446127.65625
-156.66,1683446127.671875
-102.95,1683446127.6875
-52.37,1683446127.703125
-5.90,1683446127.71875
35.58,1683446127.734375
71.43,1683446127.75
101.35,1683446127.765625
125.50,1683446127.78125
144.38,1683446127.796875
158.69,1683446127.8125
169.15,1683446127.828125
176.37,1683446127.84375
180.75,1683446127.859375
182.57,1683446127.875
182.07,1683446127.890625
179.51,1683446127.90625
175.23,1683446127.921875
169.65,1683446127.9375
163.18,1683446127.953125
156.15,1683446127.96875
148.81,1683446127.984375
141.30,1683446128.0
133.69,1683446128.015625
126.02,1683446128.03125
118.33,1683446128.046875
110.69,1683446128.0625
103.16,1683446128.078125
95.80,1683446128.09375
88.68,1683446128.109375
81.83,1683446128.125
75.25,1683446128.140625
68.95,1683446128.15625
62.95,1683446128.171875
57.25,1683446128.1875
51.86,1683446128.203125
46.78,1683446128.21875
42.03,1683446128.234375
37.59,1683446128.25
33.45,1683446128.265625
29.61,1683446128.28125
26.07,1683446128.296875
22.81,1683446128.3125
19.83,1683446128.328125
17.11,1683446128.34375
14.67,1683446128.359375
12.48,1683446128.375
10.54,1683446128.390625
8.83,1683446128.40625
7.35,1683446128.421875
6.07,1683446128.4375
4.97,1683446128.453125
4.05,1683446128.46875
3.27,1683446128.484375
2.62,1683446128.5
2.09,1683446128.515625
1.65,1683446128.53125
1.30,1683446128.546875
1.01,1683446128.5625
0.79,1683446128.578125
0.61,1683446128.59375
0.47,1683446128.609375
0.37,1683446128.625
0.28,1683446128.640625
0.23,1683446128.65625
0.18,1683446128.671875
0.15,1683446128.6875
0.13,1683446128.703125
0.13,1683446128.71875
0.13,1683446128.734375
0.14,1683446128.75
0.16,1683446128.765625
0.19,1683446128.78125
0.22,1683446128.796875
0.25,1683446128.8125
0.29,1683446128.828125
0.34,1683446128.84375
0.38,1683446128.859375
0.43,1683446128.875
0.47,1683446128.890625
0.52,1683446128.90625
0.57,1683446128.921875
0.62,1683446128.9375
0.68,1683446128.953125
0.73,1683446128.96875
0.79,1683446128.984375
0.86,1683446129.0
0.93,1683446129.015625
1.01,1683446129.03125
1.09,1683446129.046875
1.19,1683446129.0625
1.30,1683446129.078125
1.42,1683446129.09375
1.55,1683446129.109375
1.71,1683446129.125
1.88,1683446129.140625
2.07,1683446129.15625
2.28,1683446129.171875
2.52,1683446129.1875
2.78,1683446129.203125
3.07,1683446129.21875
3.39,1683446129.234375
3.75,1683446129.25
4.13,1683446129.265625
4.55,1683446129.28125
5.00,1683446129.296875
5.49,1683446129.3125
6.02,1683446129.328125
6.59,1683446129.34375
7.20,1683446129.359375
7.84,1683446129.375
8.54,1683446129.390625
9.27,1683446129.40625
10.05,1683446129.421875
10.88,1683446129.4375
11.74,1683446129.453125
12.65,1683446129.46875
13.61,1683446129.484375
14.63,1683446129.5
15.70,1683446129.515625
16.84,1683446129.53125
18.03,1683446129.546875
19.27,1683446129.5625
20.53,1683446129.578125
21.75,1683446129.59375
22.88,1683446129.609375
23.81,1683446129.625
24.43,1683446129.640625
24.60,1683446129.65625
24.23,1683446129.671875
23.18,1683446129.6875
21.41,1683446129.703125
18.88,1683446129.71875
15.64,1683446129.734375
11.73,1683446129.75
7.34,1683446129.765625
2.63,1683446129.78125
-2.18,1683446129.796875
-6.85,1683446129.8125
-11.17,1683446129.828125
-14.92,1683446129.84375
-17.96,1683446129.859375
-20.19,1683446129.875
-21.61,1683446129.890625
-22.21,1683446129.90625
-22.12,1683446129.921875
-21.44,1683446129.9375
-20.29,1683446129.953125
-18.77,1683446129.96875
-16.98,1683446129.984375
-14.97,1683446130.0
-12.83,1683446130.015625
-10.63,1683446130.03125
-8.40,1683446130.046875
-6.26,1683446130.0625
-4.25,1683446130.078125
-2.38,1683446130.09375
-0.62,1683446130.109375
1.08,1683446130.125
2.75,1683446130.140625
4.45,1683446130.15625
6.15,1683446130.171875
7.88,1683446130.1875
9.47,1683446130.203125
10.89,1683446130.21875
12.15,1683446130.234375
13.37,1683446130.25
14.67,1683446130.265625
16.21,1683446130.28125
18.00,1683446130.296875
20.05,1683446130.3125
22.29,1683446130.328125
24.37,1683446130.34375
26.11,1683446130.359375
27.52,1683446130.375
28.77,1683446130.390625
30.16,1683446130.40625
31.93,1683446130.421875
34.18,1683446130.4375
36.84,1683446130.453125
39.75,1683446130.46875
42.25,1683446130.484375
44.03,1683446130.5
45.10,1683446130.515625
45.80,1683446130.53125
46.64,1683446130.546875
48.04,1683446130.5625
50.11,1683446130.578125
52.60,1683446130.59375
55.09,1683446130.609375
56.44,1683446130.625
56.00,1683446130.640625
53.55,1683446130.65625
49.27,1683446130.671875
43.43,1683446130.6875
36.02,1683446130.703125
26.36,1683446130.71875
12.70,1683446130.734375
-2.91,1683446130.75
-20.66,1683446130.765625
-41.15,1683446130.78125
-65.01,1683446130.796875
-92.52,1683446130.8125
-122.94,1683446130.828125
-154.16,1683446130.84375
-182.56,1683446130.859375
-203.78,1683446130.875
-213.86,1683446130.890625
-211.22,1683446130.90625
-196.57,1683446130.921875
-172.79,1683446130.9375
-143.99,1683446130.953125
-114.21,1683446130.96875
-86.46,1683446130.984375
-62.37,1683446131.0
-42.55,1683446131.015625
-27.01,1683446131.03125
-16.06,1683446131.046875
-9.62,1683446131.0625
-7.01,1683446131.078125
-6.84,1683446131.09375
-7.23,1683446131.109375
-6.41,1683446131.125
-3.38,1683446131.140625
1.66,1683446131.15625
7.44,1683446131.171875
11.82,1683446131.1875
13.14,1683446131.203125
10.81,1683446131.21875
5.63,1683446131.234375
-0.61,1683446131.25
-5.77,1683446131.265625
-8.19,1683446131.28125
-7.14,1683446131.296875
-2.78,1683446131.3125
3.96,1683446131.328125
12.01,1683446131.34375
20.51,1683446131.359375
28.83,1683446131.375
36.49,1683446131.390625
43.00,1683446131.40625
47.83,1683446131.421875
50.59,1683446131.4375
51.28,1683446131.453125
50.25,1683446131.46875
48.27,1683446131.484375
46.11,1683446131.5
44.23,1683446131.515625
42.63,1683446131.53125
40.96,1683446131.546875
38.77,1683446131.5625
35.91,1683446131.578125
32.53,1683446131.59375
29.07,1683446131.609375
25.92,1683446131.625
23.32,1683446131.640625
21.21,1683446131.65625
19.38,1683446131.671875
17.64,1683446131.6875
15.86,1683446131.703125
14.01,1683446131.71875
12.03,1683446131.734375
9.75,1683446131.75
7.01,1683446131.765625
3.74,1683446131.78125
0.09,1683446131.796875
-3.55,1683446131.8125
-6.75,1683446131.828125
-9.25,1683446131.84375
-11.21,1683446131.859375
-13.20,1683446131.875
-15.98,1683446131.890625
-20.10,1683446131.90625
-25.53,1683446131.921875
-31.49,1683446131.9375
-36.69,1683446131.953125
-39.68,1683446131.96875
-39.43,1683446131.984375
-35.61,1683446132.0
-28.72,1683446132.015625
-19.76,1683446132.03125
-9.91,1683446132.046875
-0.11,1683446132.0625
8.99,1683446132.078125
17.08,1683446132.09375
23.98,1683446132.109375
29.43,1683446132.125
33.18,1683446132.140625
34.92,1683446132.15625
34.55,1683446132.171875
32.24,1683446132.1875
28.55,1683446132.203125
24.20,1683446132.21875
20.00,1683446132.234375
16.45,1683446132.25
13.74,1683446132.265625
11.73,1683446132.28125
10.13,1683446132.296875
8.62,1683446132.3125
7.05,1683446132.328125
5.33,1683446132.34375
3.53,1683446132.359375
1.66,1683446132.375
-0.29,1683446132.390625
-2.32,1683446132.40625
-4.41,1683446132.421875
-6.58,1683446132.4375
-8.89,1683446132.453125
-11.47,1683446132.46875
-14.54,1683446132.484375
-18.28,1683446132.5
-22.77,1683446132.515625
-27.98,1683446132.53125
-33.79,1683446132.546875
-39.89,1683446132.5625
-45.74,1683446132.578125
-50.50,1683446132.59375
-52.96,1683446132.609375
-51.83,1683446132.625
-46.14,1683446132.640625
-35.74,1683446132.65625
-21.61,1683446132.671875
-5.78,1683446132.6875
9.23,1683446132.703125
21.14,1683446132.71875
28.75,1683446132.734375
32.11,1683446132.75
32.32,1683446132.765625
30.83,1683446132.78125
28.74,1683446132.796875
26.47,1683446132.8125
23.91,1683446132.828125
20.83,1683446132.84375
17.35,1683446132.859375
13.93,1683446132.875
11.17,1683446132.890625
9.38,1683446132.90625
8.39,1683446132.921875
7.72,1683446132.9375
6.87,1683446132.953125
5.65,1683446132.96875
4.17,1683446132.984375
2.60,1683446133.0
0.90,1683446133.015625
-1.35,1683446133.03125
-4.74,1683446133.046875
-9.72,1683446133.0625
-16.34,1683446133.078125
-24.23,1683446133.09375
-32.67,1683446133.109375
-40.86,1683446133.125
-48.09,1683446133.140625
-53.87,1683446133.15625
-58.02,1683446133.171875
-60.70,1683446133.1875
-62.38,1683446133.203125
-63.65,1683446133.21875
-64.99,1683446133.234375
-66.47,1683446133.25
-67.61,1683446133.265625
-67.51,1683446133.28125
-65.20,1683446133.296875
-60.03,1683446133.3125
-51.94,1683446133.328125
-41.54,1683446133.34375
-29.82,1683446133.359375
-17.90,1683446133.375
-6.70,1683446133.390625
3.17,1683446133.40625
11.47,1683446133.421875
18.20,1683446133.4375
23.48,1683446133.453125
27.41,1683446133.46875
29.98,1683446133.484375
31.11,1683446133.5
30.75,1683446133.515625
28.91,1683446133.53125
25.81,1683446133.546875
21.86,1683446133.5625
17.65,1683446133.578125
13.83,1683446133.59375
10.98,1683446133.609375
9.53,1683446133.625
9.50,1683446133.640625
10.50,1683446133.65625
11.83,1683446133.671875
12.68,1683446133.6875
12.44,1683446133.703125
10.85,1683446133.71875
8.01,1683446133.734375
4.21,1683446133.75
-0.17,1683446133.765625
-4.86,1683446133.78125
-9.54,1683446133.796875
-13.86,1683446133.8125
-17.45,1683446133.828125
-20.02,1683446133.84375
-21.56,1683446133.859375
-22.37,1683446133.875
-22.91,1683446133.890625
-23.59,1683446133.90625
-24.55,1683446133.921875
-25.60,1683446133.9375
-26.49,1683446133.953125
-27.10,1683446133.96875
-27.59,1683446133.984375
-28.26,1683446134.0
-29.22,1683446134.015625
-30.23,1683446134.03125
-30.57,1683446134.046875
-29.32,1683446134.0625
-25.79,1683446134.078125
-19.80,1683446134.09375
-11.92,1683446134.109375
-3.17,1683446134.125
5.29,1683446134.140625
12.53,1683446134.15625
18.03,1683446134.171875
21.61,1683446134.1875
23.30,1683446134.203125
23.25,1683446134.21875
21.74,1683446134.234375
19.29,1683446134.25
16.59,1683446134.265625
14.46,1683446134.28125
13.56,1683446134.296875
14.25,1683446134.3125
16.41,1683446134.328125
19.59,1683446134.34375
23.04,1683446134.359375
25.90,1683446134.375
27.31,1683446134.390625
26.54,1683446134.40625
23.18,1683446134.421875
17.37,1683446134.4375
9.95,1683446134.453125
2.43,1683446134.46875
-3.26,1683446134.484375
-5.42,1683446134.5
-3.20,1683446134.515625
2.94,1683446134.53125
11.11,1683446134.546875
18.54,1683446134.5625
22.44,1683446134.578125
21.00,1683446134.59375
14.05,1683446134.609375
3.21,1683446134.625
-8.67,1683446134.640625
-18.43,1683446134.65625
-23.59,1683446134.671875
-22.93,1683446134.6875
-16.54,1683446134.703125
-5.38,1683446134.71875
9.40,1683446134.734375
26.77,1683446134.75
45.93,1683446134.765625
65.91,1683446134.78125
85.27,1683446134.796875
101.96,1683446134.8125
113.83,1683446134.828125
119.27,1683446134.84375
117.93,1683446134.859375
110.90,1683446134.875
100.28,1683446134.890625
88.38,1683446134.90625
76.96,1683446134.921875
66.91,1683446134.9375
58.51,1683446134.953125
51.91,1683446134.96875
47.52,1683446134.984375
45.96,1683446135.0
47.63,1683446135.015625
52.27,1683446135.03125
58.78,1683446135.046875
65.48,1683446135.0625
70.66,1683446135.078125
73.13,1683446135.09375
72.46,1683446135.109375
68.92,1683446135.125
63.23,1683446135.140625
56.17,1683446135.15625
48.32,1683446135.171875
39.82,1683446135.1875
30.38,1683446135.203125
19.45,1683446135.21875
6.56,1683446135.234375
-8.35,1683446135.25
-24.62,1683446135.265625
-41.02,1683446135.28125
-55.79,1683446135.296875
-67.21,1683446135.3125
-73.92,1683446135.328125
-75.21,1683446135.34375
-71.25,1683446135.359375
-62.98,1683446135.375
-51.95,1683446135.390625
-40.05,1683446135.40625
-29.09,1683446135.421875
-20.43,1683446135.4375
-14.65,1683446135.453125
-11.50,1683446135.46875
-10.08,1683446135.484375
-9.18,1683446135.5
-7.78,1683446135.515625
-5.41,1683446135.53125
-2.30,1683446135.546875
0.66,1683446135.5625
2.22,1683446135.578125
1.37,1683446135.59375
-2.30,1683446135.609375
-8.33,1683446135.625
-15.59,1683446135.640625
-22.70,1683446135.65625
-28.44,1683446135.671875
-31.98,1683446135.6875
-32.86,1683446135.703125
-30.96,1683446135.71875
-26.57,1683446135.734375
-20.57,1683446135.75
-14.47,1683446135.765625
-10.06,1683446135.78125
-8.78,1683446135.796875
-11.13,1683446135.8125
-16.36,1683446135.828125
-22.87,1683446135.84375
-28.96,1683446135.859375
-33.65,1683446135.875
-36.92,1683446135.890625
-39.62,1683446135.90625
-42.76,1683446135.921875
-46.97,1683446135.9375
-52.25,1683446135.953125
-58.05,1683446135.96875
-63.45,1683446135.984375
-67.34,1683446136.0
-68.52,1683446136.015625
-65.84,1683446136.03125
-58.51,1683446136.046875
-46.52,1683446136.0625
-30.79,1683446136.078125
-13.11,1683446136.09375
4.37,1683446136.109375
19.66,1683446136.125
31.53,1683446136.140625
39.62,1683446136.15625
44.46,1683446136.171875
47.23,1683446136.1875
49.27,1683446136.203125
51.73,1683446136.21875
55.07,1683446136.234375
58.94,1683446136.25
62.34,1683446136.265625
64.07,1683446136.28125
63.34,1683446136.296875
60.04,1683446136.3125
54.80,1683446136.328125
48.59,1683446136.34375
42.28,1683446136.359375
36.40,1683446136.375
31.25,1683446136.390625
26.94,1683446136.40625
23.61,1683446136.421875
21.26,1683446136.4375
19.59,1683446136.453125
17.98,1683446136.46875
15.76,1683446136.484375
12.44,1683446136.5
8.08,1683446136.515625
3.09,1683446136.53125
-1.96,1683446136.546875
-6.74,1683446136.5625
-11.24,1683446136.578125
-15.75,1683446136.59375
-20.61,1683446136.609375
-26.09,1683446136.625
-32.33,1683446136.640625
-39.38,1683446136.65625
-47.07,1683446136.671875
-54.78,1683446136.6875
-61.42,1683446136.703125
-65.54,1683446136.71875
-65.78,1683446136.734375
-61.51,1683446136.75
-53.14,1683446136.765625
-42.09,1683446136.78125
-30.21,1683446136.796875
-19.11,1683446136.8125
-9.58,1683446136.828125
-1.58,1683446136.84375
5.50,1683446136.859375
12.25,1683446136.875
18.87,1683446136.890625
25.12,1683446136.90625
30.49,1683446136.921875
34.48,1683446136.9375
36.86,1683446136.953125
37.72,1683446136.96875
37.53,1683446136.984375
36.95,1683446137.0
36.68,1683446137.015625
37.19,1683446137.03125
38.57,1683446137.046875
40.37,1683446137.0625
41.75,1683446137.078125
41.80,1683446137.09375
39.85,1683446137.109375
35.81,1683446137.125
30.11,1683446137.140625
23.50,1683446137.15625
16.64,1683446137.171875
9.92,1683446137.1875
3.34,1683446137.203125
-3.20,1683446137.21875
-9.66,1683446137.234375
-15.65,1683446137.25
-20.57,1683446137.265625
-23.89,1683446137.28125
-25.51,1683446137.296875
-25.93,1683446137.3125
-26.06,1683446137.328125
-27.02,1683446137.34375
-29.63,1683446137.359375
-34.23,1683446137.375
-40.65,1683446137.390625
-48.27,1683446137.40625
-56.21,1683446137.421875
-63.40,1683446137.4375
-68.62,1683446137.453125
-70.72,1683446137.46875
-68.90,1683446137.484375
-62.93,1683446137.5
-53.31,1683446137.515625
-41.10,1683446137.53125
-27.61,1683446137.546875
-14.00,1683446137.5625
-1.16,1683446137.578125
10.28,1683446137.59375
19.84,1683446137.609375
27.18,1683446137.625
32.23,1683446137.640625
35.27,1683446137.65625
36.89,1683446137.671875
37.77,1683446137.6875
38.34,1683446137.703125
38.67,1683446137.71875
38.42,1683446137.734375
37.29,1683446137.75
35.17,1683446137.765625
32.42,1683446137.78125
29.70,1683446137.796875
27.65,1683446137.8125
26.64,1683446137.828125
26.56,1683446137.84375
26.87,1683446137.859375
26.80,1683446137.875
25.66,1683446137.890625
23.00,1683446137.90625
18.77,1683446137.921875
13.25,1683446137.9375
6.92,1683446137.953125
0.37,1683446137.96875
-5.91,1683446137.984375
-11.49,1683446138.0
-16.05,1683446138.015625
-19.39,1683446138.03125
-21.45,1683446138.046875
-22.45,1683446138.0625
-22.74,1683446138.078125
-22.82,1683446138.09375
-23.07,1683446138.109375
-23.76,1683446138.125
-25.02,1683446138.140625
-26.94,1683446138.15625
-29.67,1683446138.171875
-33.23,1683446138.1875
-37.40,1683446138.203125
-41.45,1683446138.21875
-44.26,1683446138.234375
-44.61,1683446138.25
-41.57,1683446138.265625
-35.04,1683446138.28125
-25.81,1683446138.296875
-15.40,1683446138.3125
-5.49,1683446138.328125
2.66,1683446138.34375
8.65,1683446138.359375
12.94,1683446138.375
16.50,1683446138.390625
20.28,1683446138.40625
24.76,1683446138.421875
29.84,1683446138.4375
34.94,1683446138.453125
39.42,1683446138.46875
42.85,1683446138.484375
45.11,1683446138.5
46.27,1683446138.515625
46.35,1683446138.53125
45.23,1683446138.546875
42.69,1683446138.5625
38.64,1683446138.578125
33.29,1683446138.59375
27.21,1683446138.609375
21.17,1683446138.625
15.95,1683446138.640625
12.02,1683446138.65625
9.45,1683446138.671875
7.99,1683446138.6875
7.15,1683446138.703125
6.43,1683446138.71875
5.53,1683446138.734375
4.43,1683446138.75
3.36,1683446138.765625
2.58,1683446138.78125
2.20,1683446138.796875
1.89,1683446138.8125
0.99,1683446138.828125
-1.32,1683446138.84375
-5.63,1683446138.859375
-11.91,1683446138.875
-19.57,1683446138.890625
-27.65,1683446138.90625
-35.24,1683446138.921875
-41.90,1683446138.9375
-47.77,1683446138.953125
-53.52,1683446138.96875
-59.94,1683446138.984375
-67.47,1683446139.0
-75.85,1683446139.015625
-83.96,1683446139.03125
-89.92,1683446139.046875
-91.47,1683446139.0625
-86.55,1683446139.078125
-73.97,1683446139.09375
-54.00,1683446139.109375
-28.56,1683446139.125
-0.91,1683446139.140625
25.17,1683446139.15625
46.43,1683446139.171875
61.06,1683446139.1875
68.92,1683446139.203125
71.18,1683446139.21875
69.48,1683446139.234375
65.16,1683446139.25
58.87,1683446139.265625
50.67,1683446139.28125
40.64,1683446139.296875
29.34,1683446139.3125
18.12,1683446139.328125
8.81,1683446139.34375
3.00,1683446139.359375
1.43,1683446139.375
3.60,1683446139.390625
8.00,1683446139.40625
12.60,1683446139.421875
15.61,1683446139.4375
15.77,1683446139.453125
12.40,1683446139.46875
5.30,1683446139.484375
-5.34,1683446139.5
-18.73,1683446139.515625
-33.38,1683446139.53125
-47.11,1683446139.546875
-57.72,1683446139.5625
-63.77,1683446139.578125
-65.37,1683446139.59375
-64.18,1683446139.609375
-62.53,1683446139.625
-62.12,1683446139.640625
-63.04,1683446139.65625
-63.71,1683446139.671875
-61.86,1683446139.6875
-56.10,1683446139.703125
-46.95,1683446139.71875
-37.05,1683446139.734375
-30.25,1683446139.75
-30.18,1683446139.765625
-38.83,1683446139.78125
-55.83,1683446139.796875
-78.60,1683446139.8125
-103.08,1683446139.828125
-124.91,1683446139.84375
-140.38,1683446139.859375
-147.15,1683446139.875
-144.54,1683446139.890625
-133.40,1683446139.90625
-115.80,1683446139.921875
-94.46,1683446139.9375
-72.26,1683446139.953125
-51.77,1683446139.96875
-34.75,1683446139.984375
-22.01,1683446140.0
-13.22,1683446140.015625
-7.18,1683446140.03125
-2.17,1683446140.046875
3.47,1683446140.0625
10.80,1683446140.078125
20.16,1683446140.09375
31.14,1683446140.109375
42.99,1683446140.125
55.13,1683446140.140625
67.40,1683446140.15625
80.19,1683446140.171875
94.44,1683446140.1875
111.25,1683446140.203125
131.46,1683446140.21875
155.10,1683446140.234375
180.84,1683446140.25
206.00,1683446140.265625
227.03,1683446140.28125
240.62,1683446140.296875
244.97,1683446140.3125
240.69,1683446140.328125
230.58,1683446140.34375
218.57,1683446140.359375
207.92,1683446140.375
199.82,1683446140.390625
193.06,1683446140.40625
184.94,1683446140.421875
172.90,1683446140.4375
155.99,1683446140.453125
135.35,1683446140.46875
113.55,1683446140.484375
93.34,1683446140.5
76.44,1683446140.515625
63.09,1683446140.53125
52.46,1683446140.546875
43.25,1683446140.5625
34.24,1683446140.578125
24.43,1683446140.59375
12.76,1683446140.609375
-2.00,1683446140.625
-21.07,1683446140.640625
-44.97,1683446140.65625
-72.97,1683446140.671875
-102.93,1683446140.6875
-131.66,1683446140.703125
-155.89,1683446140.71875
-173.00,1683446140.734375
-181.68,1683446140.75
-181.88,1683446140.765625
-174.56,1683446140.78125
-161.33,1683446140.796875
-144.27,1683446140.8125
-125.56,1683446140.828125
-107.29,1683446140.84375
-91.09,1683446140.859375
-77.71,1683446140.875
-67.07,1683446140.890625
-58.36,1683446140.90625
-50.52,1683446140.921875
-42.68,1683446140.9375
-34.43,1683446140.953125
-25.85,1683446140.96875
-17.33,1683446140.984375
-9.33,1683446141.0
-2.25,1683446141.015625
3.62,1683446141.03125
8.13,1683446141.046875
11.24,1683446141.0625
13.06,1683446141.078125
13.85,1683446141.09375
13.93,1683446141.109375
13.51,1683446141.125
12.62,1683446141.140625
10.99,1683446141.15625
8.11,1683446141.171875
3.44,1683446141.1875
-3.28,1683446141.203125
-11.88,1683446141.21875
-21.60,1683446141.234375
-31.31,1683446141.25
-39.71,1683446141.265625
-45.70,1683446141.28125
-48.45,1683446141.296875
-47.56,1683446141.3125
-43.03,1683446141.328125
-35.33,1683446141.34375
-25.52,1683446141.359375
-15.24,1683446141.375
-6.55,1683446141.390625
-1.34,1683446141.40625
-0.76,1683446141.421875
-4.79,1683446141.4375
-12.12,1683446141.453125
-20.58,1683446141.46875
-27.76,1683446141.484375
-31.58,1683446141.5
-30.67,1683446141.515625
-24.48,1683446141.53125
-13.22,1683446141.546875
2.28,1683446141.5625
20.62,1683446141.578125
40.05,1683446141.59375
58.62,1683446141.609375
74.59,1683446141.625
86.66,1683446141.640625
94.23,1683446141.65625
97.37,1683446141.671875
96.65,1683446141.6875
92.90,1683446141.703125
87.07,1683446141.71875
80.12,1683446141.734375
72.96,1683446141.75
66.39,1683446141.765625
60.94,1683446141.78125
56.61,1683446141.796875
52.78,1683446141.8125
48.31,1683446141.828125
41.83,1683446141.84375
32.27,1683446141.859375
19.06,1683446141.875
2.25,1683446141.890625
-17.70,1683446141.90625
-40.16,1683446141.921875
-64.39,1683446141.9375
-89.37,1683446141.953125
-113.64,1683446141.96875
-135.40,1683446141.984375
-152.77,1683446142.0
-164.41,1683446142.015625
-169.83,1683446142.03125
-169.48,1683446142.046875
-164.45,1683446142.0625
-156.08,1683446142.078125
-145.59,1683446142.09375
-134.01,1683446142.109375
-122.27,1683446142.125
-111.29,1683446142.140625
-101.98,1683446142.15625
-94.95,1683446142.171875
-90.42,1683446142.1875
-88.03,1683446142.203125
-86.98,1683446142.21875
-86.15,1683446142.234375
-84.38,1683446142.25
-80.66,1683446142.265625
-74.34,1683446142.28125
-65.27,1683446142.296875
-53.87,1683446142.3125
-41.05,1683446142.328125
-27.93,1683446142.34375
-15.50,1683446142.359375
-4.33,1683446142.375
5.51,1683446142.390625
14.36,1683446142.40625
22.70,1683446142.421875
30.85,1683446142.4375
38.86,1683446142.453125
46.52,1683446142.46875
53.55,1683446142.484375
59.76,1683446142.5
65.02,1683446142.515625
69.41,1683446142.53125
72.96,1683446142.546875
75.78,1683446142.5625
77.98,1683446142.578125
79.74,1683446142.59375
81.28,1683446142.609375
82.76,1683446142.625
84.23,1683446142.640625
85.57,1683446142.65625
86.55,1683446142.671875
86.88,1683446142.6875
86.27,1683446142.703125
84.49,1683446142.71875
81.34,1683446142.734375
76.60,1683446142.75
70.11,1683446142.765625
61.76,1683446142.78125
51.66,1683446142.796875
40.18,1683446142.8125
27.99,1683446142.828125
15.94,1683446142.84375
4.85,1683446142.859375
-4.74,1683446142.875
-12.70,1683446142.890625
-19.37,1683446142.90625
-25.31,1683446142.921875
-31.02,1683446142.9375
-36.57,1683446142.953125
-41.45,1683446142.96875
-44.67,1683446142.984375
-45.06,1683446143.0
-41.53,1683446143.015625
-33.40,1683446143.03125
-20.49,1683446143.046875
-3.23,1683446143.0625
17.27,1683446143.078125
39.20,1683446143.09375
60.20,1683446143.109375
77.77,1683446143.125
89.85,1683446143.140625
95.30,1683446143.15625
94.25,1683446143.171875
88.00,1683446143.1875
78.48,1683446143.203125
67.68,1683446143.21875
57.15,1683446143.234375
47.86,1683446143.25
40.18,1683446143.265625
34.16,1683446143.28125
29.60,1683446143.296875
26.11,1683446143.3125
23.19,1683446143.328125
20.29,1683446143.34375
17.02,1683446143.359375
13.27,1683446143.375
9.18,1683446143.390625
5.04,1683446143.40625
1.17,1683446143.421875
-2.31,1683446143.4375
-5.43,1683446143.453125
-8.33,1683446143.46875
-11.15,1683446143.484375
-13.94,1683446143.5
-16.75,1683446143.515625
-19.61,1683446143.53125
-22.56,1683446143.546875
-25.59,1683446143.5625
-28.61,1683446143.578125
-31.54,1683446143.59375
-34.34,1683446143.609375
-37.22,1683446143.625
-40.52,1683446143.640625
-44.57,1683446143.65625
-49.42,1683446143.671875
-54.64,1683446143.6875
-59.31,1683446143.703125
-62.16,1683446143.71875
-61.95,1683446143.734375
-57.76,1683446143.75
-49.25,1683446143.765625
-36.74,1683446143.78125
-21.18,1683446143.796875
-4.18,1683446143.8125
12.22,1683446143.828125
25.62,1683446143.84375
33.74,1683446143.859375
34.94,1683446143.875
28.76,1683446143.890625
16.19,1683446143.90625
-0.36,1683446143.921875
-17.60,1683446143.9375
-32.06,1683446143.953125
-40.85,1683446143.96875
-42.20,1683446143.984375
-35.75,1683446144.0
-22.51,1683446144.015625
-4.59,1683446144.03125
15.19,1683446144.046875
33.85,1683446144.0625
48.76,1683446144.078125
58.16,1683446144.09375
61.51,1683446144.109375
59.46,1683446144.125
53.42,1683446144.140625
45.18,1683446144.15625
36.33,1683446144.171875
27.98,1683446144.1875
20.74,1683446144.203125
14.76,1683446144.21875
9.89,1683446144.234375
5.75,1683446144.25
1.80,1683446144.265625
-2.66,1683446144.28125
-8.28,1683446144.296875
-15.50,1683446144.3125
-24.27,1683446144.328125
-33.96,1683446144.34375
-43.43,1683446144.359375
-51.26,1683446144.375
-56.13,1683446144.390625
-57.14,1683446144.40625
-53.97,1683446144.421875
-46.93,1683446144.4375
-36.82,1683446144.453125
-24.82,1683446144.46875
-12.25,1683446144.484375
-0.41,1683446144.5
9.69,1683446144.515625
17.47,1683446144.53125
22.85,1683446144.546875
26.22,1683446144.5625
28.19,1683446144.578125
29.36,1683446144.59375
30.07,1683446144.609375
30.38,1683446144.625
30.18,1683446144.640625
29.32,1683446144.65625
27.84,1683446144.671875
25.97,1683446144.6875
24.05,1683446144.703125
22.35,1683446144.71875
21.02,1683446144.734375
19.96,1683446144.75
18.88,1683446144.765625
17.23,1683446144.78125
14.42,1683446144.796875
9.92,1683446144.8125
3.48,1683446144.828125
-4.67,1683446144.84375
-13.73,1683446144.859375
-22.50,1683446144.875
-29.72,1683446144.890625
-34.50,1683446144.90625
-36.76,1683446144.921875
-37.35,1683446144.9375
-37.92,1683446144.953125
-40.46,1683446144.96875
-46.62,1683446144.984375
-57.00,1683446145.0
-70.77,1683446145.015625
-85.68,1683446145.03125
-98.66,1683446145.046875
-106.65,1683446145.0625
-107.42,1683446145.078125
-100.25,1683446145.09375
-86.01,1683446145.109375
-66.84,1683446145.125
-45.50,1683446145.140625
-24.69,1683446145.15625
-6.62,1683446145.171875
7.32,1683446145.1875
16.50,1683446145.203125
21.01,1683446145.21875
21.54,1683446145.234375
19.29,1683446145.25
15.71,1683446145.265625
12.22,1683446145.28125
9.87,1683446145.296875
9.05,1683446145.3125
9.47,1683446145.328125
10.29,1683446145.34375
10.50,1683446145.359375
9.32,1683446145.375
6.36,1683446145.390625
1.75,1683446145.40625
-4.09,1683446145.421875
-10.54,1683446145.4375
-17.00,1683446145.453125
-22.94,1683446145.46875
-27.93,1683446145.484375
-31.67,1683446145.5
-34.05,1683446145.515625
-35.14,1683446145.53125
-35.29,1683446145.546875
-35.07,1683446145.5625
-35.13,1683446145.578125
-36.02,1683446145.59375
-38.05,1683446145.609375
-41.18,1683446145.625
-45.15,1683446145.640625
-49.68,1683446145.65625
-54.70,1683446145.671875
-60.30,1683446145.6875
-66.53,1683446145.703125
-73.09,1683446145.71875
-79.04,1683446145.734375
-82.93,1683446145.75
-83.18,1683446145.765625
-78.61,1683446145.78125
-68.76,1683446145.796875
-54.08,1683446145.8125
-35.63,1683446145.828125
-14.84,1683446145.84375
6.71,1683446145.859375
27.45,1683446145.875
45.94,1683446145.890625
61.06,1683446145.90625
72.38,1683446145.921875
80.36,1683446145.9375
86.41,1683446145.953125
92.45,1683446145.96875
100.23,1683446145.984375
110.70,1683446146.0
123.73,1683446146.015625
138.28,1683446146.03125
152.90,1683446146.046875
166.35,1683446146.0625
178.05,1683446146.078125
188.31,1683446146.09375
198.51,1683446146.109375
210.98,1683446146.125
228.66,1683446146.140625
254.24,1683446146.15625
288.97,1683446146.171875
331.51,1683446146.1875
377.46,1683446146.203125
420.08,1683446146.21875
452.08,1683446146.234375
467.89,1683446146.25
465.30,1683446146.265625
445.85,1683446146.28125
413.79,1683446146.296875
374.34,1683446146.3125
331.96,1683446146.328125
289.61,1683446146.34375
248.82,1683446146.359375
210.24,1683446146.375
174.20,1683446146.390625
140.77,1683446146.40625
109.42,1683446146.421875
78.77,1683446146.4375
46.61,1683446146.453125
10.69,1683446146.46875
-30.14,1683446146.484375
-74.86,1683446146.5
-120.00,1683446146.515625
-160.44,1683446146.53125
-191.09,1683446146.546875
-208.83,1683446146.5625
-213.76,1683446146.578125
-209.13,1683446146.59375
-200.02,1683446146.609375
-191.38,1683446146.625
-186.30,1683446146.640625
-185.38,1683446146.65625
-187.19,1683446146.671875
-189.41,1683446146.6875
-189.99,1683446146.703125
-187.79,1683446146.71875
-182.64,1683446146.734375
-175.26,1683446146.75
-167.10,1683446146.765625
-160.29,1683446146.78125
-157.39,1683446146.796875
-160.66,1683446146.8125
-171.19,1683446146.828125
-188.16,1683446146.84375
-208.69,1683446146.859375
-228.59,1683446146.875
-243.72,1683446146.890625
-251.14,1683446146.90625
-249.81,1683446146.921875
-240.29,1683446146.9375
-224.09,1683446146.953125
-203.01,1683446146.96875
-178.92,1683446146.984375
-154.02,1683446147.0
-130.80,1683446147.015625
-111.82,1683446147.03125
-99.02,1683446147.046875
-93.06,1683446147.0625
-93.09,1683446147.078125
-97.16,1683446147.09375
-103.01,1683446147.109375
-108.58,1683446147.125
-112.34,1683446147.140625
-113.00,1683446147.15625
-109.52,1683446147.171875
-101.03,1683446147.1875
-87.24,1683446147.203125
-68.74,1683446147.21875
-47.00,1683446147.234375
-24.08,1683446147.25
-1.97,1683446147.265625
17.82,1683446147.28125
34.47,1683446147.296875
47.59,1683446147.3125
56.99,1683446147.328125
62.49,1683446147.34375
64.04,1683446147.359375
61.84,1683446147.375
56.56,1683446147.390625
49.33,1683446147.40625
41.50,1683446147.421875
34.57,1683446147.4375
29.82,1683446147.453125
28.22,1683446147.46875
30.26,1683446147.484375
35.77,1683446147.5
43.83,1683446147.515625
52.84,1683446147.53125
60.64,1683446147.546875
65.03,1683446147.5625
64.22,1683446147.578125
57.28,1683446147.59375
44.44,1683446147.609375
27.07,1683446147.625
7.44,1683446147.640625
-11.72,1683446147.65625
-27.66,1683446147.671875
-38.15,1683446147.6875
-41.92,1683446147.703125
-38.94,1683446147.71875
-30.44,1683446147.734375
-18.73,1683446147.75
-6.59,1683446147.765625
3.38,1683446147.78125
9.40,1683446147.796875
10.90,1683446147.8125
8.44,1683446147.828125
3.41,1683446147.84375
-2.53,1683446147.859375
-7.89,1683446147.875
-11.64,1683446147.890625
-13.34,1683446147.90625
-13.18,1683446147.921875
-11.87,1683446147.9375
-10.53,1683446147.953125
-10.44,1683446147.96875
-12.70,1683446147.984375
-17.69,1683446148.0
-24.82,1683446148.015625
-32.39,1683446148.03125
-37.93,1683446148.046875
-38.92,1683446148.0625
-33.58,1683446148.078125
-21.47,1683446148.09375
-3.67,1683446148.109375
17.52,1683446148.125
39.22,1683446148.140625
58.63,1683446148.15625
73.63,1683446148.171875
83.17,1683446148.1875
87.28,1683446148.203125
86.99,1683446148.21875
83.78,1683446148.234375
79.16,1683446148.25
74.05,1683446148.265625
68.60,1683446148.28125
62.23,1683446148.296875
54.11,1683446148.3125
43.78,1683446148.328125
31.59,1683446148.34375
18.74,1683446148.359375
6.84,1683446148.375
-2.78,1683446148.390625
-9.68,1683446148.40625
-14.51,1683446148.421875
-18.65,1683446148.4375
-23.60,1683446148.453125
-30.26,1683446148.46875
-38.67,1683446148.484375
-48.09,1683446148.5
-57.47,1683446148.515625
-65.83,1683446148.53125
-72.50,1683446148.546875
-77.06,1683446148.5625
-79.30,1683446148.578125
-79.12,1683446148.59375
-76.65,1683446148.609375
-72.17,1683446148.625
-66.05,1683446148.640625
-58.57,1683446148.65625
-49.76,1683446148.671875
-39.46,1683446148.6875
-27.57,1683446148.703125
-14.29,1683446148.71875
-0.26,1683446148.734375
13.53,1683446148.75
26.12,1683446148.765625
36.79,1683446148.78125
45.19,1683446148.796875
51.43,1683446148.8125
55.96,1683446148.828125
59.57,1683446148.84375
63.21,1683446148.859375
67.80,1683446148.875
73.85,1683446148.890625
81.12,1683446148.90625
88.52,1683446148.921875
94.36,1683446148.9375
96.83,1683446148.953125
94.58,1683446148.96875
87.23,1683446148.984375
75.54,1683446149.0
61.34,1683446149.015625
47.13,1683446149.03125
35.43,1683446149.046875
28.06,1683446149.0625
25.58,1683446149.078125
26.96,1683446149.09375
29.84,1683446149.109375
31.22,1683446149.125
28.52,1683446149.140625
20.47,1683446149.15625
7.66,1683446149.171875
-7.54,1683446149.1875
-21.81,1683446149.203125
-32.03,1683446149.21875
-36.26,1683446149.234375
-34.37,1683446149.25
-27.69,1683446149.265625
-18.32,1683446149.28125
-8.21,1683446149.296875
1.29,1683446149.3125
9.41,1683446149.328125
15.71,1683446149.34375
19.92,1683446149.359375
21.98,1683446149.375
22.28,1683446149.390625
21.58,1683446149.40625
20.61,1683446149.421875
19.58,1683446149.4375
17.99,1683446149.453125
15.00,1683446149.46875
10.15,1683446149.484375
4.12,1683446149.5
-1.26,1683446149.515625
-3.59,1683446149.53125
-0.93,1683446149.546875
7.22,1683446149.5625
19.79,1683446149.578125
34.45,1683446149.59375
48.58,1683446149.609375
59.91,1683446149.625
67.07,1683446149.640625
69.54,1683446149.65625
67.38,1683446149.671875
61.08,1683446149.6875
51.46,1683446149.703125
39.66,1683446149.71875
27.23,1683446149.734375
15.91,1683446149.75
7.17,1683446149.765625
1.59,1683446149.78125
-1.24,1683446149.796875
-2.54,1683446149.8125
-3.30,1683446149.828125
-3.27,1683446149.84375
-0.47,1683446149.859375
8.47,1683446149.875
27.34,1683446149.890625
59.20,1683446149.90625
105.29,1683446149.921875
164.13,1683446149.9375
231.12,1683446149.953125
298.70,1683446149.96875
357.75,1683446149.984375
399.69,1683446150.0
419.13,1683446150.015625
415.61,1683446150.03125
393.73,1683446150.046875
361.19,1683446150.0625
325.83,1683446150.078125
293.14,1683446150.09375
265.28,1683446150.109375
241.86,1683446150.125
221.62,1683446150.140625
203.87,1683446150.15625
188.62,1683446150.171875
175.99,1683446150.1875
165.38,1683446150.203125
155.34,1683446150.21875
144.29,1683446150.234375
131.44,1683446150.25
117.30,1683446150.265625
103.39,1683446150.28125
91.46,1683446150.296875
82.40,1683446150.3125
75.62,1683446150.328125
69.20,1683446150.34375
60.61,1683446150.359375
47.70,1683446150.375
29.51,1683446150.390625
6.39,1683446150.40625
-20.35,1683446150.421875
-49.21,1683446150.4375
-79.29,1683446150.453125
-110.62,1683446150.46875
-144.19,1683446150.484375
-181.52,1683446150.5
-224.17,1683446150.515625
-272.84,1683446150.53125
-326.65,1683446150.546875
-382.56,1683446150.5625
-435.45,1683446150.578125
-479.11,1683446150.59375
-507.68,1683446150.609375
-517.40,1683446150.625
-507.69,1683446150.640625
-481.35,1683446150.65625
-443.58,1683446150.671875
-400.39,1683446150.6875
-357.07,1683446150.703125
-317.09,1683446150.71875
-282.02,1683446150.734375
-252.07,1683446150.75
-226.88,1683446150.765625
-206.11,1683446150.78125
-189.57,1683446150.796875
-176.94,1683446150.8125
-167.45,1683446150.828125
-159.86,1683446150.84375
-152.79,1683446150.859375
-145.19,1683446150.875
-136.82,1683446150.890625
-128.20,1683446150.90625
-120.00,1683446150.921875
-112.47,1683446150.9375
-104.94,1683446150.953125
-96.03,1683446150.96875
-84.38,1683446150.984375
-69.42,1683446151.0
-51.96,1683446151.015625
-34.06,1683446151.03125
-18.33,1683446151.046875
-6.90,1683446151.0625
-0.59,1683446151.078125
1.37,1683446151.09375
0.92,1683446151.109375
0.14,1683446151.125
0.31,1683446151.140625
1.33,1683446151.15625
2.01,1683446151.171875
0.95,1683446151.1875
-2.57,1683446151.203125
-7.98,1683446151.21875
-13.72,1683446151.234375
-18.00,1683446151.25
-19.57,1683446151.265625
-18.19,1683446151.28125
-14.41,1683446151.296875
-9.16,1683446151.3125
-3.25,1683446151.328125
2.76,1683446151.34375
8.37,1683446151.359375
12.95,1683446151.375
15.67,1683446151.390625
15.82,1683446151.40625
13.17,1683446151.421875
8.28,1683446151.4375
2.54,1683446151.453125
-2.26,1683446151.46875
-4.53,1683446151.484375
-3.50,1683446151.5
0.55,1683446151.515625
6.36,1683446151.53125
12.22,1683446151.546875
16.52,1683446151.5625
18.24,1683446151.578125
17.10,1683446151.59375
13.53,1683446151.609375
8.44,1683446151.625
2.83,1683446151.640625
-2.27,1683446151.65625
-6.09,1683446151.671875
-8.14,1683446151.6875
-8.24,1683446151.703125
-6.70,1683446151.71875
-4.16,1683446151.734375
-1.64,1683446151.75
-0.13,1683446151.765625
-0.47,1683446151.78125
-3.06,1683446151.796875
-7.88,1683446151.8125
-14.50,1683446151.828125
-22.24,1683446151.84375
-30.18,1683446151.859375
-37.32,1683446151.875
-42.69,1683446151.890625
-45.48,1683446151.90625
-45.38,1683446151.921875
-42.58,1683446151.9375
-37.91,1683446151.953125
-32.56,1683446151.96875
-27.66,1683446151.984375
-23.92,1683446152.0
-21.21,1683446152.015625
-18.68,1683446152.03125
-15.08,1683446152.046875
-9.28,1683446152.0625
-0.85,1683446152.078125
9.77,1683446152.09375
21.49,1683446152.109375
33.08,1683446152.125
43.73,1683446152.140625
53.26,1683446152.15625
61.96,1683446152.171875
69.94,1683446152.1875
76.71,1683446152.203125
81.17,1683446152.21875
82.14,1683446152.234375
79.01,1683446152.25
72.29,1683446152.265625
63.53,1683446152.28125
54.59,1683446152.296875
46.92,1683446152.3125
41.06,1683446152.328125
36.78,1683446152.34375
33.55,1683446152.359375
30.93,1683446152.375
28.75,1683446152.390625
26.84,1683446152.40625
24.83,1683446152.421875
22.22,1683446152.4375
18.78,1683446152.453125
15.09,1683446152.46875
12.63,1683446152.484375
13.49,1683446152.5
19.49,1683446152.515625
31.36,1683446152.53125
48.30,1683446152.546875
68.20,1683446152.5625
88.44,1683446152.578125
106.57,1683446152.59375
120.86,1683446152.609375
130.40,1683446152.625
134.90,1683446152.640625
134.61,1683446152.65625
130.44,1683446152.671875
123.98,1683446152.6875
117.46,1683446152.703125
113.35,1683446152.71875
113.67,1683446152.734375
119.41,1683446152.75
130.06,1683446152.765625
143.75,1683446152.78125
157.68,1683446152.796875
168.96,1683446152.8125
175.28,1683446152.828125
175.56,1683446152.84375
170.25,1683446152.859375
161.21,1683446152.875
151.14,1683446152.890625
142.62,1683446152.90625
137.13,1683446152.921875
134.54,1683446152.9375
133.30,1683446152.953125
131.34,1683446152.96875
127.10,1683446152.984375
120.28,1683446153.0
111.67,1683446153.015625
102.47,1683446153.03125
93.38,1683446153.046875
84.17,1683446153.0625
73.89,1683446153.078125
61.48,1683446153.09375
46.46,1683446153.109375
29.14,1683446153.125
10.64,1683446153.140625
-7.28,1683446153.15625
-22.38,1683446153.171875
-32.12,1683446153.1875
-34.24,1683446153.203125
-27.57,1683446153.21875
-12.77,1683446153.234375
7.56,1683446153.25
29.49,1683446153.265625
48.99,1683446153.28125
63.01,1683446153.296875
69.80,1683446153.3125
68.60,1683446153.328125
59.17,1683446153.34375
41.95,1683446153.359375
18.82,1683446153.375
-6.28,1683446153.390625
-27.83,1683446153.40625
-40.60,1683446153.421875
-42.19,1683446153.4375
-34.63,1683446153.453125
-23.96,1683446153.46875
-17.80,1683446153.484375
-21.97,1683446153.5
-38.16,1683446153.515625
-63.21,1683446153.53125
-90.59,1683446153.546875
-112.67,1683446153.5625
-123.13,1683446153.578125
-118.42,1683446153.59375
-98.57,1683446153.609375
-66.96,1683446153.625
-29.64,1683446153.640625
6.10,1683446153.65625
33.49,1683446153.671875
48.27,1683446153.6875
50.01,1683446153.703125
42.05,1683446153.71875
30.01,1683446153.734375
19.39,1683446153.75
13.21,1683446153.765625
10.90,1683446153.78125
9.09,1683446153.796875
3.86,1683446153.8125
-6.74,1683446153.828125
-21.21,1683446153.84375
-35.02,1683446153.859375
-42.89,1683446153.875
-41.58,1683446153.890625
-31.85,1683446153.90625
-18.22,1683446153.921875
-6.88,1683446153.9375
-2.36,1683446153.953125
-5.23,1683446153.96875
-11.88,1683446153.984375
-16.61,1683446154.0
-15.07,1683446154.015625
-7.02,1683446154.03125
3.05,1683446154.046875
8.06,1683446154.0625
1.72,1683446154.078125
-18.11,1683446154.09375
-48.07,1683446154.109375
-80.29,1683446154.125
-104.99,1683446154.140625
-113.39,1683446154.15625
-99.96,1683446154.171875
-63.46,1683446154.1875
-7.19,1683446154.203125
61.58,1683446154.21875
132.67,1683446154.234375
194.91,1683446154.25
238.72,1683446154.265625
258.31,1683446154.28125
252.79,1683446154.296875
225.68,1683446154.3125
183.36,1683446154.328125
133.22,1683446154.34375
82.24,1683446154.359375
36.15,1683446154.375
-1.10,1683446154.390625
-28.06,1683446154.40625
-46.31,1683446154.421875
-60.16,1683446154.4375
-75.23,1683446154.453125
-96.44,1683446154.46875
-126.18,1683446154.484375
-163.77,1683446154.5
-206.69,1683446154.515625
-252.51,1683446154.53125
-300.31,1683446154.546875
-350.88,1683446154.5625
-405.26,1683446154.578125
-463.24,1683446154.59375
-522.17,1683446154.609375
-577.31,1683446154.625
-623.00,1683446154.640625
-654.26,1683446154.65625
-667.94,1683446154.671875
-663.23,1683446154.6875
-641.89,1683446154.703125
-607.74,1683446154.71875
-566.29,1683446154.734375
-523.75,1683446154.75
-485.56,1683446154.765625
-454.60,1683446154.78125
-430.18,1683446154.796875
-408.24,1683446154.8125
-383.40,1683446154.828125
-351.72,1683446154.84375
-313.15,1683446154.859375
-271.82,1683446154.875
-234.28,1683446154.890625
-206.36,1683446154.90625
-190.47,1683446154.921875
-184.77,1683446154.9375
-184.16,1683446154.953125
-182.67,1683446154.96875
-175.69,1683446154.984375
-161.12,1683446155.0
-139.60,1683446155.015625
-113.87,1683446155.03125
-87.85,1683446155.046875
-65.42,1683446155.0625
-49.12,1683446155.078125
-39.19,1683446155.09375
-33.44,1683446155.109375
-28.13,1683446155.125
-19.63,1683446155.140625
-6.13,1683446155.15625
11.63,1683446155.171875
31.07,1683446155.1875
49.37,1683446155.203125
65.06,1683446155.21875
78.64,1683446155.234375
91.81,1683446155.25
106.08,1683446155.265625
121.61,1683446155.28125
137.11,1683446155.296875
150.45,1683446155.3125
159.86,1683446155.328125
164.59,1683446155.34375
164.68,1683446155.359375
160.43,1683446155.375
151.76,1683446155.390625
138.00,1683446155.40625
118.23,1683446155.421875
91.96,1683446155.4375
59.79,1683446155.453125
23.98,1683446155.46875
-11.78,1683446155.484375
-43.01,1683446155.5
-65.50,1683446155.515625
-76.46,1683446155.53125
-75.46,1683446155.546875
-64.80,1683446155.5625
-48.98,1683446155.578125
-33.38,1683446155.59375
-22.42,1683446155.609375
-18.07,1683446155.625
-19.43,1683446155.640625
-23.40,1683446155.65625
-26.34,1683446155.671875
-25.57,1683446155.6875
-20.41,1683446155.703125
-12.08,1683446155.71875
-2.90,1683446155.734375
4.79,1683446155.75
9.36,1683446155.765625
10.29,1683446155.78125
8.24,1683446155.796875
4.39,1683446155.8125
0.11,1683446155.828125
-3.47,1683446155.84375
-5.64,1683446155.859375
-6.10,1683446155.875
-4.86,1683446155.890625
-2.10,1683446155.90625
2.03,1683446155.921875
7.38,1683446155.9375
13.65,1683446155.953125
20.44,1683446155.96875
27.14,1683446155.984375
33.20,1683446156.0
38.24,1683446156.015625
42.32,1683446156.03125
46.04,1683446156.046875
50.36,1683446156.0625
56.39,1683446156.078125
64.96,1683446156.09375
76.36,1683446156.109375
90.25,1683446156.125
105.80,1683446156.140625
122.11,1683446156.15625
138.52,1683446156.171875
154.83,1683446156.1875
171.34,1683446156.203125
188.58,1683446156.21875
207.05,1683446156.234375
227.27,1683446156.25
249.79,1683446156.265625
275.17,1683446156.28125
303.64,1683446156.296875
334.42,1683446156.3125
365.16,1683446156.328125
392.02,1683446156.34375
410.58,1683446156.359375
417.42,1683446156.375
411.48,1683446156.390625
394.57,1683446156.40625
370.58,1683446156.421875
343.87,1683446156.4375
317.83,1683446156.453125
294.01,1683446156.46875
272.52,1683446156.484375
252.57,1683446156.5
233.22,1683446156.515625
213.45,1683446156.53125
192.08,1683446156.546875
167.86,1683446156.5625
139.88,1683446156.578125
108.34,1683446156.59375
74.77,1683446156.609375
41.83,1683446156.625
12.29,1683446156.640625
-11.84,1683446156.65625
-29.95,1683446156.671875
-42.85,1683446156.6875
-52.19,1683446156.703125
-59.91,1683446156.71875
-67.61,1683446156.734375
-76.14,1683446156.75
-85.29,1683446156.765625
-93.85,1683446156.78125
-100.01,1683446156.796875
-102.13,1683446156.8125
-99.61,1683446156.828125
-93.37,1683446156.84375
-85.56,1683446156.859375
-78.64,1683446156.875
-74.26,1683446156.890625
-72.65,1683446156.90625
-72.79,1683446156.921875
-73.06,1683446156.9375
-72.17,1683446156.953125
-69.49,1683446156.96875
-65.01,1683446156.984375
-58.91,1683446157.0
-51.21,1683446157.015625
-41.65,1683446157.03125
-29.96,1683446157.046875
-16.12,1683446157.0625
-0.57,1683446157.078125
15.85,1683446157.09375
32.11,1683446157.109375
47.27,1683446157.125
60.63,1683446157.140625
71.58,1683446157.15625
79.52,1683446157.171875
83.75,1683446157.1875
83.62,1683446157.203125
78.84,1683446157.21875
69.83,1683446157.234375
57.85,1683446157.25
44.79,1683446157.265625
32.57,1683446157.28125
22.50,1683446157.296875
14.86,1683446157.3125
8.91,1683446157.328125
3.42,1683446157.34375
-2.69,1683446157.359375
-9.82,1683446157.375
-17.47,1683446157.390625
-24.43,1683446157.40625
-29.24,1683446157.421875
-30.61,1683446157.4375
-27.79,1683446157.453125
-20.70,1683446157.46875
-9.90,1683446157.484375
3.58,1683446157.5
18.56,1683446157.515625
33.78,1683446157.53125
48.16,1683446157.546875
60.87,1683446157.5625
71.35,1683446157.578125
79.40,1683446157.59375
85.01,1683446157.609375
88.30,1683446157.625
89.40,1683446157.640625
88.49,1683446157.65625
85.81,1683446157.671875
81.81,1683446157.6875
77.07,1683446157.703125
72.31,1683446157.71875
68.15,1683446157.734375
64.91,1683446157.75
62.60,1683446157.765625
60.86,1683446157.78125
59.18,1683446157.796875
57.05,1683446157.8125
54.13,1683446157.828125
50.37,1683446157.84375
45.98,1683446157.859375
41.39,1683446157.875
36.96,1683446157.890625
32.93,1683446157.90625
29.19,1683446157.921875
25.28,1683446157.9375
20.43,1683446157.953125
13.75,1683446157.96875
4.41,1683446157.984375
-8.07,1683446158.0
-23.43,1683446158.015625
-40.48,1683446158.03125
-57.03,1683446158.046875
-70.39,1683446158.0625
-78.04,1683446158.078125
-78.48,1683446158.09375
-71.70,1683446158.109375
-59.27,1683446158.125
-43.66,1683446158.140625
-27.41,1683446158.15625
-12.29,1683446158.171875
1.17,1683446158.1875
13.50,1683446158.203125
25.69,1683446158.21875
38.43,1683446158.234375
51.67,1683446158.25
64.59,1683446158.265625
76.07,1683446158.28125
85.25,1683446158.296875
91.92,1683446158.3125
96.47,1683446158.328125
99.35,1683446158.34375
100.66,1683446158.359375
99.94,1683446158.375
96.50,1683446158.390625
89.96,1683446158.40625
80.78,1683446158.421875
70.25,1683446158.4375
60.00,1683446158.453125
51.32,1683446158.46875
44.60,1683446158.484375
39.29,1683446158.5
34.35,1683446158.515625
28.88,1683446158.53125
22.54,1683446158.546875
15.60,1683446158.5625
8.48,1683446158.578125
1.27,1683446158.59375
-6.59,1683446158.609375
-16.01,1683446158.625
-27.51,1683446158.640625
-40.48,1683446158.65625
-52.69,1683446158.671875
-60.64,1683446158.6875
-60.76,1683446158.703125
-50.79,1683446158.71875
-30.93,1683446158.734375
-3.99,1683446158.75
25.52,1683446158.765625
53.00,1683446158.78125
75.26,1683446158.796875
91.29,1683446158.8125
102.13,1683446158.828125
109.90,1683446158.84375
116.79,1683446158.859375
124.43,1683446158.875
133.75,1683446158.890625
145.23,1683446158.90625
159.00,1683446158.921875
174.59,1683446158.9375
190.48,1683446158.953125
204.08,1683446158.96875
212.14,1683446158.984375
211.91,1683446159.0
202.28,1683446159.015625
184.27,1683446159.03125
160.73,1683446159.046875
135.17,1683446159.0625
110.51,1683446159.078125
88.45,1683446159.09375
69.40,1683446159.109375
53.11,1683446159.125
38.93,1683446159.140625
25.85,1683446159.15625
12.04,1683446159.171875
-5.27,1683446159.1875
-29.23,1683446159.203125
-62.15,1683446159.21875
-104.24,1683446159.234375
-153.05,1683446159.25
-204.02,1683446159.265625
-251.74,1683446159.28125
-291.17,1683446159.296875
-318.57,1683446159.3125
-331.74,1683446159.328125
-330.29,1683446159.34375
-316.08,1683446159.359375
-293.52,1683446159.375
-269.11,1683446159.390625
-249.70,1683446159.40625
-240.02,1683446159.421875
-240.53,1683446159.4375
-247.23,1683446159.453125
-253.43,1683446159.46875
-253.12,1683446159.484375
-243.62,1683446159.5
-226.31,1683446159.515625
-205.06,1683446159.53125
-183.49,1683446159.546875
-163.05,1683446159.5625
-142.84,1683446159.578125
-121.28,1683446159.59375
-98.01,1683446159.609375
-74.71,1683446159.625
-54.33,1683446159.640625
-39.30,1683446159.65625
-30.13,1683446159.671875
-25.38,1683446159.6875
-22.62,1683446159.703125
-19.95,1683446159.71875
-16.91,1683446159.734375
-14.40,1683446159.75
-13.68,1683446159.765625
-15.29,1683446159.78125
-18.48,1683446159.796875
-21.43,1683446159.8125
-22.10,1683446159.828125
-19.07,1683446159.84375
-12.12,1683446159.859375
-2.32,1683446159.875
8.39,1683446159.890625
17.71,1683446159.90625
23.61,1683446159.921875
24.90,1683446159.9375
21.58,1683446159.953125
14.97,1683446159.96875
7.41,1683446159.984375
1.73,1683446160.0
0.66,1683446160.015625
6.38,1683446160.03125
20.26,1683446160.046875
42.78,1683446160.0625
73.32,1683446160.078125
109.83,1683446160.09375
148.66,1683446160.109375
184.73,1683446160.125
212.61,1683446160.140625
228.17,1683446160.15625
230.04,1683446160.171875
220.27,1683446160.1875
203.65,1683446160.203125
185.78,1683446160.21875
170.92,1683446160.234375
160.63,1683446160.25
153.81,1683446160.265625
147.91,1683446160.28125
140.48,1683446160.296875
130.27,1683446160.3125
117.46,1683446160.328125
103.06,1683446160.34375
88.41,1683446160.359375
74.75,1683446160.375
63.21,1683446160.390625
54.85,1683446160.40625
50.58,1683446160.421875
50.78,1683446160.4375
55.00,1683446160.453125
61.79,1683446160.46875
69.07,1683446160.484375
74.93,1683446160.5
78.53,1683446160.515625
80.45,1683446160.53125
82.54,1683446160.546875
87.11,1683446160.5625
95.94,1683446160.578125
109.65,1683446160.59375
127.70,1683446160.609375
148.93,1683446160.625
172.16,1683446160.640625
196.51,1683446160.65625
221.11,1683446160.671875
244.71,1683446160.6875
265.54,1683446160.703125
281.63,1683446160.71875
291.76,1683446160.734375
296.03,1683446160.75
296.13,1683446160.765625
294.60,1683446160.78125
293.88,1683446160.796875
295.32,1683446160.8125
298.85,1683446160.828125
303.13,1683446160.84375
306.20,1683446160.859375
306.12,1683446160.875
301.36,1683446160.890625
291.04,1683446160.90625
275.01,1683446160.921875
253.84,1683446160.9375
228.79,1683446160.953125
201.43,1683446160.96875
173.13,1683446160.984375
144.64,1683446161.0
115.90,1683446161.015625
86.17,1683446161.03125
54.65,1683446161.046875
21.13,1683446161.0625
-13.69,1683446161.078125
-48.41,1683446161.09375
-81.45,1683446161.109375
-111.91,1683446161.125
-140.04,1683446161.140625
-167.28,1683446161.15625
-195.93,1683446161.171875
-228.69,1683446161.1875
-268.34,1683446161.203125
-317.09,1683446161.21875
-375.49,1683446161.234375
-441.10,1683446161.25
-507.52,1683446161.265625
-564.89,1683446161.28125
-602.52,1683446161.296875
-612.66,1683446161.3125
-594.08,1683446161.328125
-553.14,1683446161.34375
-501.56,1683446161.359375
-451.78,1683446161.375
-412.39,1683446161.390625
-385.95,1683446161.40625
-370.09,1683446161.421875
-360.68,1683446161.4375
-354.86,1683446161.453125
-351.94,1683446161.46875
-352.10,1683446161.484375
-354.48,1683446161.5
-356.37,1683446161.515625
-354.26,1683446161.53125
-346.05,1683446161.546875
-332.53,1683446161.5625
-317.00,1683446161.578125
-303.61,1683446161.59375
-294.98,1683446161.609375
-291.16,1683446161.625
-290.19,1683446161.640625
-289.51,1683446161.65625
-287.33,1683446161.671875
-282.97,1683446161.6875
-276.48,1683446161.703125
-267.96,1683446161.71875
-257.34,1683446161.734375
-244.58,1683446161.75
-229.95,1683446161.765625
-214.08,1683446161.78125
-197.61,1683446161.796875
-180.79,1683446161.8125
-163.40,1683446161.828125
-145.01,1683446161.84375
-125.45,1683446161.859375
-104.94,1683446161.875
-84.00,1683446161.890625
-62.98,1683446161.90625
-41.83,1683446161.921875
-20.10,1683446161.9375
2.79,1683446161.953125
27.24,1683446161.96875
53.36,1683446161.984375
80.83,1683446162.0
108.86,1683446162.015625
136.23,1683446162.03125
161.33,1683446162.046875
182.55,1683446162.0625
198.71,1683446162.078125
209.51,1683446162.09375
215.48,1683446162.109375
217.49,1683446162.125
216.01,1683446162.140625
210.75,1683446162.15625
200.84,1683446162.171875
185.74,1683446162.1875
165.99,1683446162.203125
143.59,1683446162.21875
121.30,1683446162.234375
101.47,1683446162.25
85.00,1683446162.265625
71.04,1683446162.28125
57.79,1683446162.296875
43.80,1683446162.3125
29.10,1683446162.328125
15.43,1683446162.34375
5.43,1683446162.359375
1.49,1683446162.375
4.62,1683446162.390625
14.25,1683446162.40625
28.74,1683446162.421875
46.14,1683446162.4375
64.76,1683446162.453125
83.32,1683446162.46875
100.63,1683446162.484375
115.45,1683446162.5
126.64,1683446162.515625
133.58,1683446162.53125
136.50,1683446162.546875
136.41,1683446162.5625
134.61,1683446162.578125
132.05,1683446162.59375
129.11,1683446162.609375
125.83,1683446162.625
122.48,1683446162.640625
119.89,1683446162.65625
119.13,1683446162.671875
120.81,1683446162.6875
124.26,1683446162.703125
127.49,1683446162.71875
127.80,1683446162.734375
122.96,1683446162.75
112.28,1683446162.765625
97.00,1683446162.78125
79.87,1683446162.796875
64.07,1683446162.8125
52.08,1683446162.828125
45.06,1683446162.84375
42.66,1683446162.859375
43.47,1683446162.875
45.58,1683446162.890625
47.13,1683446162.90625
46.76,1683446162.921875
43.99,1683446162.9375
39.38,1683446162.953125
34.45,1683446162.96875
31.25,1683446162.984375
31.62,1683446163.0
36.49,1683446163.015625
45.42,1683446163.03125
56.86,1683446163.046875
68.84,1683446163.0625
79.88,1683446163.078125
89.46,1683446163.09375
97.90,1683446163.109375
105.88,1683446163.125
113.89,1683446163.140625
122.20,1683446163.15625
131.00,1683446163.171875
140.64,1683446163.1875
151.37,1683446163.203125
162.93,1683446163.21875
174.22,1683446163.234375
183.62,1683446163.25
189.79,1683446163.265625
192.53,1683446163.28125
192.97,1683446163.296875
192.83,1683446163.3125
193.09,1683446163.328125
193.12,1683446163.34375
190.91,1683446163.359375
184.35,1683446163.375
172.80,1683446163.390625
157.85,1683446163.40625
142.64,1683446163.421875
130.26,1683446163.4375
122.10,1683446163.453125
117.30,1683446163.46875
113.45,1683446163.484375
108.16,1683446163.5
100.35,1683446163.515625
90.74,1683446163.53125
81.25,1683446163.546875
73.95,1683446163.5625
70.05,1683446163.578125
69.50,1683446163.59375
71.18,1683446163.609375
73.40,1683446163.625
74.40,1683446163.640625
72.73,1683446163.65625
67.46,1683446163.671875
58.29,1683446163.6875
45.46,1683446163.703125
29.61,1683446163.71875
11.50,1683446163.734375
-8.39,1683446163.75
-30.12,1683446163.765625
-54.56,1683446163.78125
-83.61,1683446163.796875
-120.01,1683446163.8125
-166.54,1683446163.828125
-224.33,1683446163.84375
-291.04,1683446163.859375
-359.85,1683446163.875
-420.43,1683446163.890625
-461.63,1683446163.90625
-475.30,1683446163.921875
-459.28,1683446163.9375
-418.28,1683446163.953125
-362.17,1683446163.96875
-302.57,1683446163.984375
-249.28,1683446164.0
-207.91,1683446164.015625
-179.15,1683446164.03125
-159.85,1683446164.046875
-144.86,1683446164.0625
-129.21,1683446164.078125
-109.74,1683446164.09375
-86.28,1683446164.109375
-61.55,1683446164.125
-40.20,1683446164.140625
-26.87,1683446164.15625
-24.21,1683446164.171875
-31.57,1683446164.1875
-45.33,1683446164.203125
-60.21,1683446164.21875
-71.18,1683446164.234375
-75.04,1683446164.25
-70.97,1683446164.265625
-60.12,1683446164.28125
-44.70,1683446164.296875
-26.98,1683446164.3125
-8.99,1683446164.328125
7.67,1683446164.34375
21.83,1683446164.359375
32.98,1683446164.375
41.40,1683446164.390625
48.14,1683446164.40625
54.46,1683446164.421875
61.10,1683446164.4375
67.69,1683446164.453125
72.96,1683446164.46875
75.67,1683446164.484375
75.74,1683446164.5
74.71,1683446164.515625
75.46,1683446164.53125
80.92,1683446164.546875
92.66,1683446164.5625
110.02,1683446164.578125
130.12,1683446164.59375
148.67,1683446164.609375
161.19,1683446164.625
164.23,1683446164.640625
156.20,1683446164.65625
137.79,1683446164.671875
111.90,1683446164.6875
82.92,1683446164.703125
55.43,1683446164.71875
32.86,1683446164.734375
16.66,1683446164.75
6.12,1683446164.765625
-1.00,1683446164.78125
-7.27,1683446164.796875
-14.63,1683446164.8125
-23.70,1683446164.828125
-33.64,1683446164.84375
-42.33,1683446164.859375
-46.88,1683446164.875
-44.64,1683446164.890625
-34.12,1683446164.90625
-15.92,1683446164.921875
7.13,1683446164.9375
30.69,1683446164.953125
50.39,1683446164.96875
63.38,1683446164.984375
69.29,1683446165.0
70.03,1683446165.015625
68.63,1683446165.03125
67.79,1683446165.046875
68.73,1683446165.0625
70.93,1683446165.078125
72.74,1683446165.09375
72.42,1683446165.109375
69.04,1683446165.125
62.74,1683446165.140625
54.52,1683446165.15625
45.65,1683446165.171875
37.29,1683446165.1875
30.35,1683446165.203125
25.64,1683446165.21875
23.94,1683446165.234375
25.81,1683446165.25
31.23,1683446165.265625
39.12,1683446165.28125
47.20,1683446165.296875
52.47,1683446165.3125
52.14,1683446165.328125
44.62,1683446165.34375
30.17,1683446165.359375
10.67,1683446165.375
-11.18,1683446165.390625
-32.77,1683446165.40625
-52.26,1683446165.421875
-68.61,1683446165.4375
-81.47,1683446165.453125
-90.90,1683446165.46875
-97.22,1683446165.484375
-101.07,1683446165.5
-103.31,1683446165.515625
-104.81,1683446165.53125
-106.11,1683446165.546875
-107.24,1683446165.5625
-107.68,1683446165.578125
-106.66,1683446165.59375
-103.47,1683446165.609375
-97.64,1683446165.625
-89.08,1683446165.640625
-77.87,1683446165.65625
-64.00,1683446165.671875
-47.24,1683446165.6875
-27.11,1683446165.703125
-3.21,1683446165.71875
24.38,1683446165.734375
54.50,1683446165.75
84.73,1683446165.765625
111.54,1683446165.78125
131.09,1683446165.796875
140.24,1683446165.8125
137.45,1683446165.828125
123.21,1683446165.84375
99.97,1683446165.859375
71.42,1683446165.875
41.63,1683446165.890625
14.40,1683446165.90625
-7.29,1683446165.921875
-21.34,1683446165.9375
-26.88,1683446165.953125
-24.34,1683446165.96875
-15.44,1683446165.984375
-2.86,1683446166.0
10.39,1683446166.015625
21.71,1683446166.03125
29.39,1683446166.046875
32.70,1683446166.0625
31.73,1683446166.078125
26.87,1683446166.09375
18.46,1683446166.109375
6.92,1683446166.125
-7.25,1683446166.140625
-23.19,1683446166.15625
-39.89,1683446166.171875
-56.53,1683446166.1875
-72.88,1683446166.203125
-89.38,1683446166.21875
-106.65,1683446166.234375
-124.64,1683446166.25
-141.97,1683446166.265625
-155.90,1683446166.28125
-163.19,1683446166.296875
-161.36,1683446166.3125
-149.88,1683446166.328125
-130.47,1683446166.34375
-106.54,1683446166.359375
-81.95,1683446166.375
-59.69,1683446166.390625
-41.20,1683446166.40625
-26.37,1683446166.421875
-14.04,1683446166.4375
-2.88,1683446166.453125
7.94,1683446166.46875
18.50,1683446166.484375
28.09,1683446166.5
35.71,1683446166.515625
40.50,1683446166.53125
42.25,1683446166.546875
41.48,1683446166.5625
39.33,1683446166.578125
37.03,1683446166.59375
35.45,1683446166.609375
34.86,1683446166.625
34.94,1683446166.640625
35.18,1683446166.65625
35.17,1683446166.671875
34.89,1683446166.6875
34.52,1683446166.703125
34.29,1683446166.71875
34.25,1683446166.734375
34.17,1683446166.75
33.59,1683446166.765625
31.97,1683446166.78125
28.87,1683446166.796875
24.13,1683446166.8125
17.96,1683446166.828125
10.79,1683446166.84375
3.12,1683446166.859375
-4.68,1683446166.875
-12.47,1683446166.890625
-20.22,1683446166.90625
-27.96,1683446166.921875
-35.64,1683446166.9375
-43.31,1683446166.953125
-51.18,1683446166.96875
-59.56,1683446166.984375
-68.58,1683446167.0
-77.71,1683446167.015625
-85.62,1683446167.03125
-90.40,1683446167.046875
-90.32,1683446167.0625
-84.69,1683446167.078125
-74.27,1683446167.09375
-61.06,1683446167.109375
-47.50,1683446167.125
-35.52,1683446167.140625
-26.07,1683446167.15625
-19.03,1683446167.171875
-13.68,1683446167.1875
-9.24,1683446167.203125
-5.17,1683446167.21875
-1.30,1683446167.234375
2.40,1683446167.25
5.89,1683446167.265625
9.23,1683446167.28125
12.61,1683446167.296875
16.18,1683446167.3125
19.99,1683446167.328125
23.78,1683446167.34375
26.96,1683446167.359375
28.83,1683446167.375
28.84,1683446167.390625
26.91,1683446167.40625
23.49,1683446167.421875
19.37,1683446167.4375
15.12,1683446167.453125
10.77,1683446167.46875
5.62,1683446167.484375
-1.37,1683446167.5
-10.94,1683446167.515625
-22.97,1683446167.53125
-36.35,1683446167.546875
-49.31,1683446167.5625
-60.30,1683446167.578125
-68.69,1683446167.59375
-75.06,1683446167.609375
-80.84,1683446167.625
-87.48,1683446167.640625
-95.81,1683446167.65625
-105.49,1683446167.671875
-115.35,1683446167.6875
-123.88,1683446167.703125
-129.74,1683446167.71875
-132.10,1683446167.734375
-130.69,1683446167.75
-125.84,1683446167.765625
-118.41,1683446167.78125
-109.78,1683446167.796875
-101.37,1683446167.8125
-94.22,1683446167.828125
-88.50,1683446167.84375
-83.38,1683446167.859375
-77.52,1683446167.875
-69.69,1683446167.890625
-59.31,1683446167.90625
-46.56,1683446167.921875
-32.05,1683446167.9375
-16.48,1683446167.953125
-0.60,1683446167.96875
14.82,1683446167.984375
28.91,1683446168.0
40.82,1683446168.015625
50.03,1683446168.03125
56.61,1683446168.046875
61.08,1683446168.0625
64.05,1683446168.078125
65.86,1683446168.09375
66.40,1683446168.109375
65.35,1683446168.125
62.59,1683446168.140625
58.11,1683446168.15625
51.92,1683446168.171875
43.84,1683446168.1875
33.46,1683446168.203125
20.63,1683446168.21875
6.00,1683446168.234375
-8.76,1683446168.25
-21.51,1683446168.265625
-30.47,1683446168.28125
-35.21,1683446168.296875
-36.77,1683446168.3125
-37.32,1683446168.328125
-39.29,1683446168.34375
-44.50,1683446168.359375
-53.70,1683446168.375
-66.59,1683446168.390625
-82.06,1683446168.40625
-98.45,1683446168.421875
-113.78,1683446168.4375
-125.93,1683446168.453125
-132.77,1683446168.46875
-132.58,1683446168.484375
-124.38,1683446168.5
-108.24,1683446168.515625
-85.46,1683446168.53125
-58.36,1683446168.546875
-29.85,1683446168.5625
-2.73,1683446168.578125
21.04,1683446168.59375
40.65,1683446168.609375
56.59,1683446168.625
70.08,1683446168.640625
82.44,1683446168.65625
94.54,1683446168.671875
106.59,1683446168.6875
118.23,1683446168.703125
128.84,1683446168.71875
137.82,1683446168.734375
144.63,1683446168.75
148.94,1683446168.765625
150.61,1683446168.78125
149.88,1683446168.796875
147.40,1683446168.8125
144.07,1683446168.828125
140.73,1683446168.84375
137.86,1683446168.859375
135.54,1683446168.875
133.59,1683446168.890625
131.83,1683446168.90625
130.16,1683446168.921875
128.47,1683446168.9375
126.37,1683446168.953125
123.08,1683446168.96875
117.53,1683446168.984375
108.84,1683446169.0
96.76,1683446169.015625
81.99,1683446169.03125
66.03,1683446169.046875
50.63,1683446169.0625
37.05,1683446169.078125
25.50,1683446169.09375
14.90,1683446169.109375
3.45,1683446169.125
-10.43,1683446169.140625
-27.22,1683446169.15625
-45.40,1683446169.171875
-62.01,1683446169.1875
-73.63,1683446169.203125
-77.65,1683446169.21875
-73.37,1683446169.234375
-62.06,1683446169.25
-46.36,1683446169.265625
-29.33,1683446169.28125
-13.56,1683446169.296875
-0.69,1683446169.3125
8.65,1683446169.328125
14.77,1683446169.34375
18.68,1683446169.359375
21.77,1683446169.375
25.31,1683446169.390625
30.01,1683446169.40625
35.82,1683446169.421875
42.16,1683446169.4375
48.49,1683446169.453125
54.81,1683446169.46875
61.73,1683446169.484375
69.86,1683446169.5
79.03,1683446169.515625
87.90,1683446169.53125
94.19,1683446169.546875
95.71,1683446169.5625
91.45,1683446169.578125
82.14,1683446169.59375
69.84,1683446169.609375
57.06,1683446169.625
45.81,1683446169.640625
36.68,1683446169.65625
29.21,1683446169.671875
22.32,1683446169.6875
15.05,1683446169.703125
7.05,1683446169.71875
-1.41,1683446169.734375
-9.90,1683446169.75
-18.21,1683446169.765625
-26.60,1683446169.78125
-35.78,1683446169.796875
-46.53,1683446169.8125
-59.30,1683446169.828125
-73.92,1683446169.84375
-89.54,1683446169.859375
-104.89,1683446169.875
-118.62,1683446169.890625
-129.57,1683446169.90625
-136.87,1683446169.921875
-139.88,1683446169.9375
-138.09,1683446169.953125
-131.13,1683446169.96875
-118.94,1683446169.984375
-101.99,1683446170.0
-81.36,1683446170.015625
-58.71,1683446170.03125
-35.84,1683446170.046875
-14.44,1683446170.0625
4.35,1683446170.078125
19.94,1683446170.09375
32.29,1683446170.109375
41.73,1683446170.125
48.86,1683446170.140625
54.45,1683446170.15625
59.15,1683446170.171875
63.31,1683446170.1875
66.91,1683446170.203125
69.66,1683446170.21875
71.42,1683446170.234375
72.50,1683446170.25
73.61,1683446170.265625
75.45,1683446170.28125
78.21,1683446170.296875
81.28,1683446170.3125
83.47,1683446170.328125
83.57,1683446170.34375
80.95,1683446170.359375
75.84,1683446170.375
69.04,1683446170.390625
61.33,1683446170.40625
53.04,1683446170.421875
44.00,1683446170.4375
33.78,1683446170.453125
22.10,1683446170.46875
9.08,1683446170.484375
-4.79,1683446170.5
-19.08,1683446170.515625
-33.55,1683446170.53125
-48.42,1683446170.546875
-64.24,1683446170.5625
-81.31,1683446170.578125
-99.34,1683446170.59375
-117.15,1683446170.609375
-133.25,1683446170.625
-146.39,1683446170.640625
-156.09,1683446170.65625
-162.39,1683446170.671875
-165.20,1683446170.6875
-163.69,1683446170.703125
-156.34,1683446170.71875
-141.94,1683446170.734375
-120.64,1683446170.75
-94.45,1683446170.765625
-66.53,1683446170.78125
-39.59,1683446170.796875
-14.53,1683446170.8125
9.75,1683446170.828125
35.09,1683446170.84375
62.10,1683446170.859375
88.81,1683446170.875
110.95,1683446170.890625
123.64,1683446170.90625
123.76,1683446170.921875
111.35,1683446170.9375
89.77,1683446170.953125
64.44,1683446170.96875
41.10,1683446170.984375
24.35,1683446171.0
16.59,1683446171.015625
17.98,1683446171.03125
26.69,1683446171.046875
39.54,1683446171.0625
52.89,1683446171.078125
63.57,1683446171.09375
69.71,1683446171.109375
71.12,1683446171.125
68.99,1683446171.140625
65.18,1683446171.15625
61.21,1683446171.171875
57.57,1683446171.1875
53.65,1683446171.203125
48.20,1683446171.21875
40.00,1683446171.234375
28.48,1683446171.25
13.85,1683446171.265625
-3.18,1683446171.28125
-21.62,1683446171.296875
-40.51,1683446171.3125
-58.91,1683446171.328125
-75.86,1683446171.34375
-90.20,1683446171.359375
-100.78,1683446171.375
-106.51,1683446171.390625
-106.64,1683446171.40625
-101.15,1683446171.421875
-90.76,1683446171.4375
-76.95,1683446171.453125
-61.80,1683446171.46875
-47.29,1683446171.484375
-34.69,1683446171.5
-24.24,1683446171.515625
-15.32,1683446171.53125
-7.14,1683446171.546875
0.47,1683446171.5625
6.80,1683446171.578125
10.72,1683446171.59375
11.63,1683446171.609375
10.23,1683446171.625
8.48,1683446171.640625
8.60,1683446171.65625
11.96,1683446171.671875
18.24,1683446171.6875
25.77,1683446171.703125
32.57,1683446171.71875
37.49,1683446171.734375
40.66,1683446171.75
43.06,1683446171.765625
45.49,1683446171.78125
47.83,1683446171.796875
49.12,1683446171.8125
48.28,1683446171.828125
44.97,1683446171.84375
39.99,1683446171.859375
34.78,1683446171.875
30.54,1683446171.890625
27.60,1683446171.90625
25.19,1683446171.921875
22.11,1683446171.9375
17.53,1683446171.953125
11.44,1683446171.96875
4.55,1683446171.984375
-2.37,1683446172.0
-9.16,1683446172.015625
-16.57,1683446172.03125
-25.85,1683446172.046875
-37.94,1683446172.0625
-52.68,1683446172.078125
-68.34,1683446172.09375
-82.04,1683446172.109375
-90.55,1683446172.125
-91.51,1683446172.140625
-84.23,1683446172.15625
-70.09,1683446172.171875
-52.06,1683446172.1875
-33.70,1683446172.203125
-17.83,1683446172.21875
-5.83,1683446172.234375
2.82,1683446172.25
9.71,1683446172.265625
16.58,1683446172.28125
24.49,1683446172.296875
33.50,1683446172.3125
42.84,1683446172.328125
51.34,1683446172.34375
57.74,1683446172.359375
60.97,1683446172.375
60.25,1683446172.390625
55.49,1683446172.40625
47.63,1683446172.421875
38.71,1683446172.4375
31.39,1683446172.453125
27.98,1683446172.46875
29.49,1683446172.484375
35.13,1683446172.5
42.74,1683446172.515625
49.80,1683446172.53125
54.35,1683446172.546875
55.59,1683446172.5625
53.59,1683446172.578125
48.77,1683446172.59375
41.42,1683446172.609375
31.62,1683446172.625
19.65,1683446172.640625
6.34,1683446172.65625
-6.81,1683446172.671875
-18.02,1683446172.6875
-25.84,1683446172.703125
-29.77,1683446172.71875
-30.74,1683446172.734375
-30.67,1683446172.75
-31.87,1683446172.765625
-36.08,1683446172.78125
-43.66,1683446172.796875
-53.36,1683446172.8125
-62.80,1683446172.828125
-69.34,1683446172.84375
-70.94,1683446172.859375
-66.76,1683446172.875
-57.07,1683446172.890625
-42.93,1683446172.90625
-25.81,1683446172.921875
-7.30,1683446172.9375
10.94,1683446172.953125
27.31,1683446172.96875
40.45,1683446172.984375
49.47,1683446173.0
54.22,1683446173.015625
55.33,1683446173.03125
53.93,1683446173.046875
51.35,1683446173.0625
48.72,1683446173.078125
46.79,1683446173.09375
45.80,1683446173.109375
45.48,1683446173.125
45.22,1683446173.140625
44.31,1683446173.15625
42.27,1683446173.171875
39.06,1683446173.1875
35.03,1683446173.203125
30.71,1683446173.21875
26.53,1683446173.234375
22.77,1683446173.25
19.59,1683446173.265625
17.10,1683446173.28125
15.34,1683446173.296875
14.03,1683446173.3125
12.37,1683446173.328125
9.17,1683446173.34375
3.38,1683446173.359375
-5.33,1683446173.375
-16.13,1683446173.390625
-27.30,1683446173.40625
-37.01,1683446173.421875
-44.15,1683446173.4375
-48.82,1683446173.453125
-52.11,1683446173.46875
-55.37,1683446173.484375
-59.33,1683446173.5
-63.74,1683446173.515625
-67.46,1683446173.53125
-69.11,1683446173.546875
-67.61,1683446173.5625
-62.57,1683446173.578125
-54.17,1683446173.59375
-43.05,1683446173.609375
-30.12,1683446173.625
-16.68,1683446173.640625
-4.22,1683446173.65625
5.82,1683446173.671875
12.76,1683446173.6875
16.99,1683446173.703125
20.08,1683446173.71875
24.10,1683446173.734375
30.60,1683446173.75
39.87,1683446173.765625
50.85,1683446173.78125
61.74,1683446173.796875
70.93,1683446173.8125
77.56,1683446173.828125
81.48,1683446173.84375
82.89,1683446173.859375
81.90,1683446173.875
78.69,1683446173.890625
73.78,1683446173.90625
68.08,1683446173.921875
62.43,1683446173.9375
57.00,1683446173.953125
50.98,1683446173.96875
42.93,1683446173.984375
31.88,1683446174.0
18.15,1683446174.015625
3.51,1683446174.03125
-9.59,1683446174.046875
-19.34,1683446174.0625
-25.43,1683446174.078125
-29.05,1683446174.09375
-32.03,1683446174.109375
-35.69,1683446174.125
-40.25,1683446174.140625
-45.07,1683446174.15625
-49.41,1683446174.171875
-53.23,1683446174.1875
-57.28,1683446174.203125
-62.67,1683446174.21875
-69.84,1683446174.234375
-78.15,1683446174.25
-85.74,1683446174.265625
-90.29,1683446174.28125
-89.93,1683446174.296875
-83.89,1683446174.3125
-72.68,1683446174.328125
-57.72,1683446174.34375
-40.70,1683446174.359375
-23.17,1683446174.375
-6.32,1683446174.390625
8.87,1683446174.40625
21.56,1683446174.421875
31.17,1683446174.4375
37.62,1683446174.453125
41.60,1683446174.46875
44.43,1683446174.484375
47.77,1683446174.5
52.95,1683446174.515625
60.47,1683446174.53125
69.86,1683446174.546875
79.80,1683446174.5625
88.67,1683446174.578125
94.93,1683446174.59375
97.48,1683446174.609375
95.89,1683446174.625
90.34,1683446174.640625
81.57,1683446174.65625
70.66,1683446174.671875
58.73,1683446174.6875
46.70,1683446174.703125
34.95,1683446174.71875
23.29,1683446174.734375
11.13,1683446174.75
-2.14,1683446174.765625
-16.63,1683446174.78125
-31.53,1683446174.796875
-45.00,1683446174.8125
-54.72,1683446174.828125
-58.64,1683446174.84375
-56.03,1683446174.859375
-48.03,1683446174.875
-37.60,1683446174.890625
-28.51,1683446174.90625
-24.24,1683446174.921875
-26.69,1683446174.9375
-35.74,1683446174.953125
-49.48,1683446174.96875
-64.95,1683446174.984375
-79.03,1683446175.0
-89.08,1683446175.015625
-93.25,1683446175.03125
-90.45,1683446175.046875
-80.35,1683446175.0625
-63.60,1683446175.078125
-41.91,1683446175.09375
-17.93,1683446175.109375
5.20,1683446175.125
24.76,1683446175.140625
39.26,1683446175.15625
48.71,1683446175.171875
54.36,1683446175.1875
57.96,1683446175.203125
60.76,1683446175.21875
63.13,1683446175.234375
64.65,1683446175.25
64.68,1683446175.265625
62.97,1683446175.28125
59.96,1683446175.296875
56.66,1683446175.3125
54.11,1683446175.328125
52.86,1683446175.34375
52.58,1683446175.359375
52.27,1683446175.375
50.63,1683446175.390625
46.53,1683446175.40625
39.34,1683446175.421875
29.19,1683446175.4375
16.63,1683446175.453125
2.17,1683446175.46875
-13.78,1683446175.484375
-31.04,1683446175.5
-49.51,1683446175.515625
-68.60,1683446175.53125
-87.14,1683446175.546875
-103.64,1683446175.5625
-116.93,1683446175.578125
-126.78,1683446175.59375
-134.06,1683446175.609375
-140.48,1683446175.625
-147.89,1683446175.640625
-157.36,1683446175.65625
-168.39,1683446175.671875
-178.84,1683446175.6875
-185.44,1683446175.703125
-184.88,1683446175.71875
-174.90,1683446175.734375
-155.10,1683446175.75
-127.08,1683446175.765625
-93.74,1683446175.78125
-58.15,1683446175.796875
-22.40,1683446175.8125
12.86,1683446175.828125
48.04,1683446175.84375
83.42,1683446175.859375
118.15,1683446175.875
149.95,1683446175.890625
175.85,1683446175.90625
193.37,1683446175.921875
201.62,1683446175.9375
201.24,1683446175.953125
193.27,1683446175.96875
178.54,1683446175.984375
157.04,1683446176.0
128.22,1683446176.015625
92.44,1683446176.03125
51.70,1683446176.046875
9.66,1683446176.0625
-29.12,1683446176.078125
-60.48,1683446176.09375
-81.55,1683446176.109375
-90.85,1683446176.125
-88.07,1683446176.140625
-73.96,1683446176.15625
-50.66,1683446176.171875
-22.12,1683446176.1875
6.26,1683446176.203125
28.81,1683446176.21875
41.91,1683446176.234375
45.52,1683446176.25
43.55,1683446176.265625
42.04,1683446176.28125
46.22,1683446176.296875
57.83,1683446176.3125
74.44,1683446176.328125
90.82,1683446176.34375
101.57,1683446176.359375
103.58,1683446176.375
96.80,1683446176.390625
83.62,1683446176.40625
67.25,1683446176.421875
50.46,1683446176.4375
35.08,1683446176.453125
22.10,1683446176.46875
12.16,1683446176.484375
5.54,1683446176.5
1.72,1683446176.515625
-0.60,1683446176.53125
-3.23,1683446176.546875
-7.91,1683446176.5625
-15.52,1683446176.578125
-25.91,1683446176.59375
-38.19,1683446176.609375
-51.21,1683446176.625
-63.79,1683446176.640625
-74.83,1683446176.65625
-83.34,1683446176.671875
-88.70,1683446176.6875
-90.92,1683446176.703125
-90.75,1683446176.71875
-89.32,1683446176.734375
-87.58,1683446176.75
-85.82,1683446176.765625
-83.62,1683446176.78125
-80.38,1683446176.796875
-75.98,1683446176.8125
-71.21,1683446176.828125
-67.60,1683446176.84375
-66.80,1683446176.859375
-69.85,1683446176.875
-76.82,1683446176.890625
-86.89,1683446176.90625
-98.82,1683446176.921875
-111.34,1683446176.9375
-123.53,1683446176.953125
-134.86,1683446176.96875
-145.41,1683446176.984375
-155.93,1683446177.0
-167.91,1683446177.015625
-183.28,1683446177.03125
-203.61,1683446177.046875
-229.07,1683446177.0625
-257.60,1683446177.078125
-284.85,1683446177.09375
-305.17,1683446177.109375
-313.51,1683446177.125
-307.21,1683446177.140625
-286.93,1683446177.15625
-256.33,1683446177.171875
-220.40,1683446177.1875
-183.49,1683446177.203125
-147.89,1683446177.21875
-113.62,1683446177.234375
-79.09,1683446177.25
-42.32,1683446177.265625
-2.08,1683446177.28125
41.34,1683446177.296875
85.84,1683446177.3125
127.75,1683446177.328125
162.78,1683446177.34375
187.19,1683446177.359375
199.14,1683446177.375
199.36,1683446177.390625
190.94,1683446177.40625
178.14,1683446177.421875
164.97,1683446177.4375
153.83,1683446177.453125
145.25,1683446177.46875
138.42,1683446177.484375
132.29,1683446177.5
126.41,1683446177.515625
121.15,1683446177.53125
117.17,1683446177.546875
114.80,1683446177.5625
113.63,1683446177.578125
112.49,1683446177.59375
110.00,1683446177.609375
105.13,1683446177.625
97.60,1683446177.640625
88.13,1683446177.65625
77.93,1683446177.671875
68.11,1683446177.6875
59.03,1683446177.703125
50.00,1683446177.71875
39.50,1683446177.734375
25.97,1683446177.75
8.67,1683446177.765625
-11.65,1683446177.78125
-32.69,1683446177.796875
-51.11,1683446177.8125
-63.66,1683446177.828125
-68.21,1683446177.84375
-64.34,1683446177.859375
-53.28,1683446177.875
-37.35,1683446177.890625
-19.09,1683446177.90625
-0.66,1683446177.921875
16.40,1683446177.9375
31.09,1683446177.953125
42.77,1683446177.96875
51.19,1683446177.984375
56.64,1683446178.0
60.04,1683446178.015625
62.79,1683446178.03125
66.27,1683446178.046875
71.32,1683446178.0625
77.85,1683446178.078125
84.80,1683446178.09375
90.75,1683446178.109375
94.57,1683446178.125
95.87,1683446178.140625
95.25,1683446178.15625
93.99,1683446178.171875
93.63,1683446178.1875
95.42,1683446178.203125
99.85,1683446178.21875
106.22,1683446178.234375
112.38,1683446178.25
114.89,1683446178.265625
110.18,1683446178.28125
96.29,1683446178.296875
74.42,1683446178.3125
49.25,1683446178.328125
27.30,1683446178.34375
14.23,1683446178.359375
12.10,1683446178.375
18.58,1683446178.390625
28.19,1683446178.40625
35.10,1683446178.421875
35.81,1683446178.4375
30.21,1683446178.453125
20.88,1683446178.46875
11.33,1683446178.484375
4.52,1683446178.5
2.27,1683446178.515625
5.60,1683446178.53125
15.14,1683446178.546875
30.93,1683446178.5625
51.88,1683446178.578125
75.50,1683446178.59375
98.70,1683446178.609375
119.14,1683446178.625
136.37,1683446178.640625
152.02,1683446178.65625
168.87,1683446178.671875
189.30,1683446178.6875
213.99,1683446178.703125
241.38,1683446178.71875
268.35,1683446178.734375
291.29,1683446178.75
307.27,1683446178.765625
314.67,1683446178.78125
313.46,1683446178.796875
304.83,1683446178.8125
290.81,1683446178.828125
273.66,1683446178.84375
255.38,1683446178.859375
237.31,1683446178.875
220.01,1683446178.890625
203.39,1683446178.90625
186.94,1683446178.921875
170.19,1683446178.9375
152.57,1683446178.953125
133.45,1683446178.96875
112.11,1683446178.984375
87.90,1683446179.0
60.57,1683446179.015625
30.40,1683446179.03125
-1.75,1683446179.046875
-34.90,1683446179.0625
-68.15,1683446179.078125
-100.82,1683446179.09375
-132.23,1683446179.109375
-161.44,1683446179.125
-187.23,1683446179.140625
-208.44,1683446179.15625
-224.54,1683446179.171875
-235.88,1683446179.1875
-243.84,1683446179.203125
-250.02,1683446179.21875
-255.47,1683446179.234375
-260.08,1683446179.25
-262.75,1683446179.265625
-261.89,1683446179.28125
-256.33,1683446179.296875
-245.76,1683446179.3125
-230.86,1683446179.328125
-212.92,1683446179.34375
-193.14,1683446179.359375
-172.29,1683446179.375
-150.63,1683446179.390625
-128.21,1683446179.40625
-105.45,1683446179.421875
-83.39,1683446179.4375
-63.60,1683446179.453125
-47.68,1683446179.46875
-36.48,1683446179.484375
-29.55,1683446179.5
-25.39,1683446179.515625
-22.00,1683446179.53125
-17.87,1683446179.546875
-12.72,1683446179.5625
-7.57,1683446179.578125
-4.05,1683446179.59375
-3.45,1683446179.609375
-6.04,1683446179.625
-10.97,1683446179.640625
-16.74,1683446179.65625
-22.11,1683446179.671875
-26.26,1683446179.6875
-29.35,1683446179.703125
-32.33,1683446179.71875
-36.42,1683446179.734375
-42.61,1683446179.75
-51.12,1683446179.765625
-61.15,1683446179.78125
-71.34,1683446179.796875
-80.55,1683446179.8125
-88.47,1683446179.828125
-95.94,1683446179.84375
-104.26,1683446179.859375
-114.27,1683446179.875
-125.49,1683446179.890625
-135.97,1683446179.90625
-143.11,1683446179.921875
-144.94,1683446179.9375
-140.93,1683446179.953125
-132.13,1683446179.96875
-120.07,1683446179.984375
-105.49,1683446180.0
-87.94,1683446180.015625
-66.21,1683446180.03125
-39.52,1683446180.046875
-8.72,1683446180.0625
23.51,1683446180.078125
53.29,1683446180.09375
77.01,1683446180.109375
92.38,1683446180.125
99.13,1683446180.140625
98.83,1683446180.15625
94.13,1683446180.171875
87.88,1683446180.1875
82.23,1683446180.203125
77.98,1683446180.21875
74.44,1683446180.234375
69.95,1683446180.25
62.63,1683446180.265625
51.31,1683446180.28125
36.06,1683446180.296875
17.94,1683446180.3125
-1.43,1683446180.328125
-20.54,1683446180.34375
-38.23,1683446180.359375
-53.54,1683446180.375
-65.60,1683446180.390625
-73.66,1683446180.40625
-77.68,1683446180.421875
-78.66,1683446180.4375
-78.69,1683446180.453125
-80.21,1683446180.46875
-85.04,1683446180.484375
-93.76,1683446180.5
-105.70,1683446180.515625
-119.65,1683446180.53125
-134.51,1683446180.546875
-149.57,1683446180.5625
-164.14,1683446180.578125
-176.89,1683446180.59375
-185.75,1683446180.609375
-188.39,1683446180.625
-183.01,1683446180.640625
-169.31,1683446180.65625
-148.76,1683446180.671875
-124.12,1683446180.6875
-98.50,1683446180.703125
-74.39,1683446180.71875
-53.08,1683446180.734375
-34.78,1683446180.75
-19.03,1683446180.765625
-5.26,1683446180.78125
6.85,1683446180.796875
17.44,1683446180.8125
26.72,1683446180.828125
35.18,1683446180.84375
43.51,1683446180.859375
52.22,1683446180.875
61.05,1683446180.890625
68.79,1683446180.90625
73.62,1683446180.921875
73.89,1683446180.9375
69.04,1683446180.953125
59.99,1683446180.96875
48.77,1683446180.984375
37.40,1683446181.0
26.98,1683446181.015625
17.15,1683446181.03125
6.68,1683446181.046875
-5.39,1683446181.0625
-18.82,1683446181.078125
-32.04,1683446181.09375
-42.80,1683446181.109375
-49.48,1683446181.125
-51.95,1683446181.140625
-51.81,1683446181.15625
-51.67,1683446181.171875
-53.96,1683446181.1875
-59.80,1683446181.203125
-68.58,1683446181.21875
-78.13,1683446181.234375
-85.40,1683446181.25
-87.52,1683446181.265625
-82.58,1683446181.28125
-70.13,1683446181.296875
-51.19,1683446181.3125
-27.84,1683446181.328125
-2.57,1683446181.34375
22.41,1683446181.359375
45.53,1683446181.375
66.20,1683446181.390625
84.73,1683446181.40625
102.17,1683446181.421875
119.78,1683446181.4375
138.33,1683446181.453125
157.49,1683446181.46875
175.64,1683446181.484375
190.39,1683446181.5
199.51,1683446181.515625
202.00,1683446181.53125
198.63,1683446181.546875
191.67,1683446181.5625
184.00,1683446181.578125
178.00,1683446181.59375
174.85,1683446181.609375
174.39,1683446181.625
175.63,1683446181.640625
177.25,1683446181.65625
177.99,1683446181.671875
176.74,1683446181.6875
172.37,1683446181.703125
163.80,1683446181.71875
150.25,1683446181.734375
131.61,1683446181.75
108.83,1683446181.765625
83.81,1683446181.78125
58.86,1683446181.796875
35.97,1683446181.8125
16.01,1683446181.828125
-1.73,1683446181.84375
-19.40,1683446181.859375
-39.97,1683446181.875
-66.24,1683446181.890625
-99.87,1683446181.90625
-140.49,1683446181.921875
-185.36,1683446181.9375
-229.62,1683446181.953125
-267.17,1683446181.96875
-292.12,1683446181.984375
-300.34,1683446182.0
-290.69,1683446182.015625
-265.32,1683446182.03125
-229.06,1683446182.046875
-187.93,1683446182.0625
-147.65,1683446182.078125
-112.50,1683446182.09375
-84.94,1683446182.109375
-65.73,1683446182.125
-54.43,1683446182.140625
-49.73,1683446182.15625
-49.78,1683446182.171875
-52.54,1683446182.1875
-56.26,1683446182.203125
-59.79,1683446182.21875
-62.87,1683446182.234375
-65.86,1683446182.25
-69.20,1683446182.265625
-72.86,1683446182.28125
-76.10,1683446182.296875
-77.73,1683446182.3125
-76.66,1683446182.328125
-72.56,1683446182.34375
-66.04,1683446182.359375
-58.49,1683446182.375
-51.40,1683446182.390625
-45.82,1683446182.40625
-41.91,1683446182.421875
-39.06,1683446182.4375
-36.31,1683446182.453125
-32.92,1683446182.46875
-28.90,1683446182.484375
-25.06,1683446182.5
-22.77,1683446182.515625
-23.34,1683446182.53125
-27.40,1683446182.546875
-34.73,1683446182.5625
-44.41,1683446182.578125
-55.25,1683446182.59375
-66.20,1683446182.609375
-76.46,1683446182.625
-85.25,1683446182.640625
-91.43,1683446182.65625
-93.48,1683446182.671875
-89.68,1683446182.6875
-78.57,1683446182.703125
-59.31,1683446182.71875
-31.93,1683446182.734375
2.59,1683446182.75
42.21,1683446182.765625
83.85,1683446182.78125
123.66,1683446182.796875
157.59,1683446182.8125
182.53,1683446182.828125
197.24,1683446182.84375
202.80,1683446182.859375
202.07,1683446182.875
198.42,1683446182.890625
194.36,1683446182.90625
190.72,1683446182.921875
186.74,1683446182.9375
180.87,1683446182.953125
171.79,1683446182.96875
159.09,1683446182.984375
143.42,1683446183.0
126.16,1683446183.015625
108.94,1683446183.03125
93.13,1683446183.046875
79.54,1683446183.0625
68.29,1683446183.078125
58.83,1683446183.09375
50.34,1683446183.109375
42.03,1683446183.125
33.36,1683446183.140625
24.06,1683446183.15625
13.93,1683446183.171875
2.47,1683446183.1875
-11.06,1683446183.203125
-27.34,1683446183.21875
-46.45,1683446183.234375
-67.51,1683446183.25
-88.82,1683446183.265625
-108.37,1683446183.28125
-124.43,1683446183.296875
-135.86,1683446183.3125
-142.04,1683446183.328125
-142.58,1683446183.34375
-137.22,1683446183.359375
-126.01,1683446183.375
-109.75,1683446183.390625
-90.10,1683446183.40625
-69.31,1683446183.421875
-49.40,1683446183.4375
-31.43,1683446183.453125
-15.21,1683446183.46875
0.23,1683446183.484375
15.79,1683446183.5
31.53,1683446183.515625
46.54,1683446183.53125
59.32,1683446183.546875
68.48,1683446183.5625
73.33,1683446183.578125
73.95,1683446183.59375
70.99,1683446183.609375
65.48,1683446183.625
58.58,1683446183.640625
51.59,1683446183.65625
45.79,1683446183.671875
42.29,1683446183.6875
41.76,1683446183.703125
44.13,1683446183.71875
48.49,1683446183.734375
53.29,1683446183.75
56.75,1683446183.765625
57.27,1683446183.78125
54.05,1683446183.796875
47.38,1683446183.8125
38.67,1683446183.828125
30.02,1683446183.84375
23.43,1683446183.859375
19.88,1683446183.875
18.75,1683446183.890625
17.80,1683446183.90625
14.03,1683446183.921875
4.80,1683446183.9375
-11.06,1683446183.953125
-32.82,1683446183.96875
-57.99,1683446183.984375
-83.17,1683446184.0
-104.77,1683446184.015625
-119.73,1683446184.03125
-125.89,1683446184.046875
-122.21,1683446184.0625
-108.91,1683446184.078125
-87.59,1683446184.09375
-61.07,1683446184.109375
-32.74,1683446184.125
-5.79,1683446184.140625
17.57,1683446184.15625
36.56,1683446184.171875
51.71,1683446184.1875
64.35,1683446184.203125
75.83,1683446184.21875
87.00,1683446184.234375
97.91,1683446184.25
107.91,1683446184.265625
116.00,1683446184.28125
121.27,1683446184.296875
123.28,1683446184.3125
122.26,1683446184.328125
118.89,1683446184.34375
114.03,1683446184.359375
108.27,1683446184.375
101.73,1683446184.390625
94.17,1683446184.40625
85.30,1683446184.421875
75.14,1683446184.4375
64.10,1683446184.453125
52.74,1683446184.46875
41.43,1683446184.484375
30.08,1683446184.5
18.31,1683446184.515625
5.76,1683446184.53125
-7.57,1683446184.546875
-21.14,1683446184.5625
-34.08,1683446184.578125
-45.57,1683446184.59375
-55.32,1683446184.609375
-63.76,1683446184.625
-72.06,1683446184.640625
-81.74,1683446184.65625
-94.15,1683446184.671875
-109.65,1683446184.6875
-127.17,1683446184.703125
-144.11,1683446184.71875
-156.81,1683446184.734375
-161.69,1683446184.75
-156.24,1683446184.765625
-139.88,1683446184.78125
-114.00,1683446184.796875
-81.39,1683446184.8125
-45.42,1683446184.828125
-9.37,1683446184.84375
24.00,1683446184.859375
52.59,1683446184.875
75.10,1683446184.890625
91.14,1683446184.90625
101.22,1683446184.921875
106.39,1683446184.9375
107.69,1683446184.953125
105.67,1683446184.96875
100.31,1683446184.984375
91.57,1683446185.0
80.12,1683446185.015625
67.69,1683446185.03125
56.76,1683446185.046875
49.49,1683446185.0625
46.69,1683446185.078125
47.36,1683446185.09375
49.20,1683446185.109375
49.85,1683446185.125
48.00,1683446185.140625
43.91,1683446185.15625
38.97,1683446185.171875
34.76,1683446185.1875
32.10,1683446185.203125
30.69,1683446185.21875
29.32,1683446185.234375
26.51,1683446185.25
21.10,1683446185.265625
12.71,1683446185.28125
1.73,1683446185.296875
-10.87,1683446185.3125
-23.80,1683446185.328125
-35.91,1683446185.34375
-46.48,1683446185.359375
-55.50,1683446185.375
-63.72,1683446185.390625
-72.51,1683446185.40625
-83.33,1683446185.421875
-97.05,1683446185.4375
-113.30,1683446185.453125
-130.21,1683446185.46875
-144.63,1683446185.484375
-152.99,1683446185.5
-152.35,1683446185.515625
-141.41,1683446185.53125
-120.99,1683446185.546875
-93.77,1683446185.5625
-63.53,1683446185.578125
-34.00,1683446185.59375
-7.94,1683446185.609375
13.36,1683446185.625
29.96,1683446185.640625
42.77,1683446185.65625
53.01,1683446185.671875
61.55,1683446185.6875
68.75,1683446185.703125
74.35,1683446185.71875
77.81,1683446185.734375
78.63,1683446185.75
76.80,1683446185.765625
72.97,1683446185.78125
68.35,1683446185.796875
64.32,1683446185.8125
61.89,1683446185.828125
61.31,1683446185.84375
62.11,1683446185.859375
63.38,1683446185.875
64.18,1683446185.890625
63.98,1683446185.90625
62.62,1683446185.921875
60.17,1683446185.9375
56.64,1683446185.953125
51.83,1683446185.96875
45.42,1683446185.984375
37.14,1683446186.0
27.05,1683446186.015625
15.52,1683446186.03125
3.19,1683446186.046875
-9.30,1683446186.0625
-21.49,1683446186.078125
-33.21,1683446186.09375
-44.47,1683446186.109375
-55.50,1683446186.125
-66.82,1683446186.140625
-79.20,1683446186.15625
-93.53,1683446186.171875
-110.38,1683446186.1875
-129.37,1683446186.203125
-148.57,1683446186.21875
-164.60,1683446186.234375
-173.44,1683446186.25
-171.77,1683446186.265625
-158.35,1683446186.28125
-134.54,1683446186.296875
-103.85,1683446186.3125
-70.58,1683446186.328125
-38.36,1683446186.34375
-9.31,1683446186.359375
16.07,1683446186.375
38.25,1683446186.390625
57.95,1683446186.40625
75.73,1683446186.421875
91.78,1683446186.4375
106.04,1683446186.453125
118.35,1683446186.46875
128.52,1683446186.484375
136.40,1683446186.5
142.07,1683446186.515625
145.88,1683446186.53125
148.47,1683446186.546875
150.51,1683446186.5625
152.44,1683446186.578125
154.39,1683446186.59375
156.25,1683446186.609375
158.04,1683446186.625
160.04,1683446186.640625
162.75,1683446186.65625
166.49,1683446186.671875
170.99,1683446186.6875
175.10,1683446186.703125
177.02,1683446186.71875
174.87,1683446186.734375
167.35,1683446186.75
154.21,1683446186.765625
136.36,1683446186.78125
115.58,1683446186.796875
93.91,1683446186.8125
73.12,1683446186.828125
54.29,1683446186.84375
37.60,1683446186.859375
22.41,1683446186.875
7.42,1683446186.890625
-8.99,1683446186.90625
-28.40,1683446186.921875
-51.97,1683446186.9375
-79.96,1683446186.953125
-111.41,1683446186.96875
-143.96,1683446186.984375
-174.00,1683446187.0
-197.25,1683446187.015625
-209.74,1683446187.03125
-208.92,1683446187.046875
-194.51,1683446187.0625
-168.63,1683446187.078125
-135.34,1683446187.09375
-99.37,1683446187.109375
-64.95,1683446187.125
-34.79,1683446187.140625
-9.89,1683446187.15625
10.01,1683446187.171875
25.79,1683446187.1875
38.20,1683446187.203125
47.59,1683446187.21875
54.04,1683446187.234375
57.66,1683446187.25
58.78,1683446187.265625
58.13,1683446187.28125
56.58,1683446187.296875
54.88,1683446187.3125
53.36,1683446187.328125
51.84,1683446187.34375
49.78,1683446187.359375
46.70,1683446187.375
42.46,1683446187.390625
37.50,1683446187.40625
32.65,1683446187.421875
28.82,1683446187.4375
26.60,1683446187.453125
25.95,1683446187.46875
26.03,1683446187.484375
25.28,1683446187.5
21.63,1683446187.515625
13.05,1683446187.53125
-1.84,1683446187.546875
-22.97,1683446187.5625
-48.50,1683446187.578125
-75.07,1683446187.59375
-98.75,1683446187.609375
-116.40,1683446187.625
-126.78,1683446187.640625
-130.97,1683446187.65625
-131.85,1683446187.671875
-132.96,1683446187.6875
-137.27,1683446187.703125
-146.23,1683446187.71875
-159.32,1683446187.734375
-174.22,1683446187.75
-187.29,1683446187.765625
-194.42,1683446187.78125
-192.03,1683446187.796875
-178.12,1683446187.8125
-152.82,1683446187.828125
-118.53,1683446187.84375
-79.26,1683446187.859375
-39.71,1683446187.875
-4.01,1683446187.890625
25.03,1683446187.90625
46.24,1683446187.921875
59.98,1683446187.9375
67.59,1683446187.953125
70.89,1683446187.96875
71.61,1683446187.984375
71.05,1683446188.0
69.89,1683446188.015625
68.31,1683446188.03125
66.14,1683446188.046875
63.21,1683446188.0625
59.53,1683446188.078125
55.25,1683446188.09375
50.59,1683446188.109375
45.72,1683446188.125
40.70,1683446188.140625
35.58,1683446188.15625
30.49,1683446188.171875
25.69,1683446188.1875
21.43,1683446188.203125
17.74,1683446188.21875
14.26,1683446188.234375
10.20,1683446188.25
4.59,1683446188.265625
-3.39,1683446188.28125
-14.07,1683446188.296875
-27.10,1683446188.3125
-41.65,1683446188.328125
-56.66,1683446188.34375
-71.34,1683446188.359375
-85.37,1683446188.375
-98.99,1683446188.390625
-112.89,1683446188.40625
-127.92,1683446188.421875
-144.98,1683446188.4375
-164.75,1683446188.453125
-187.59,1683446188.46875
-213.24,1683446188.484375
-240.43,1683446188.5
-266.77,1683446188.515625
-288.90,1683446188.53125
-303.25,1683446188.546875
-306.97,1683446188.5625
-298.87,1683446188.578125
-279.82,1683446188.59375
-252.57,1683446188.609375
-220.90,1683446188.625
-188.70,1683446188.640625
-159.08,1683446188.65625
-134.00,1683446188.671875
-114.23,1683446188.6875
-99.53,1683446188.703125
-88.95,1683446188.71875
-81.20,1683446188.734375
-75.00,1683446188.75
-69.44,1683446188.765625
-64.15,1683446188.78125
-59.14,1683446188.796875
-54.39,1683446188.8125
-49.45,1683446188.828125
-43.35,1683446188.84375
-34.90,1683446188.859375
-23.23,1683446188.875
-8.21,1683446188.890625
9.56,1683446188.90625
29.20,1683446188.921875
50.23,1683446188.9375
72.82,1683446188.953125
97.51,1683446188.96875
124.29,1683446188.984375
151.78,1683446189.0
177.13,1683446189.015625
196.92,1683446189.03125
208.48,1683446189.046875
211.11,1683446189.0625
206.33,1683446189.078125
196.90,1683446189.09375
185.62,1683446189.109375
174.31,1683446189.125
163.41,1683446189.140625
152.41,1683446189.15625
140.54,1683446189.171875
127.27,1683446189.1875
112.44,1683446189.203125
96.07,1683446189.21875
78.28,1683446189.234375
59.40,1683446189.25
40.26,1683446189.265625
22.34,1683446189.28125
7.52,1683446189.296875
-2.38,1683446189.3125
-6.22,1683446189.328125
-3.86,1683446189.34375
3.60,1683446189.359375
14.19,1683446189.375
25.50,1683446189.390625
35.11,1683446189.40625
41.14,1683446189.421875
42.65,1683446189.4375
40.03,1683446189.453125
35.02,1683446189.46875
30.34,1683446189.484375
28.85,1683446189.5
32.49,1683446189.515625
41.44,1683446189.53125
53.95,1683446189.546875
67.09,1683446189.5625
78.10,1683446189.578125
85.65,1683446189.59375
90.36,1683446189.609375
94.37,1683446189.625
100.10,1683446189.640625
108.84,1683446189.65625
120.03,1683446189.671875
131.56,1683446189.6875
140.90,1683446189.703125
146.31,1683446189.71875
147.63,1683446189.734375
146.14,1683446189.75
143.83,1683446189.765625
142.42,1683446189.78125
142.69,1683446189.796875
144.29,1683446189.8125
146.17,1683446189.828125
147.28,1683446189.84375
147.06,1683446189.859375
145.62,1683446189.875
143.54,1683446189.890625
141.38,1683446189.90625
139.42,1683446189.921875
137.46,1683446189.9375
134.90,1683446189.953125
130.99,1683446189.96875
124.84,1683446189.984375
115.65,1683446190.0
102.80,1683446190.015625
86.06,1683446190.03125
66.06,1683446190.046875
44.52,1683446190.0625
24.28,1683446190.078125
8.70,1683446190.09375
0.71,1683446190.109375
1.69,1683446190.125
10.89,1683446190.140625
25.58,1683446190.15625
42.07,1683446190.171875
57.02,1683446190.1875
68.49,1683446190.203125
76.25,1683446190.21875
81.39,1683446190.234375
85.42,1683446190.25
89.39,1683446190.265625
93.42,1683446190.28125
96.79,1683446190.296875
98.29,1683446190.3125
96.78,1683446190.328125
91.68,1683446190.34375
83.16,1683446190.359375
72.06,1683446190.375
59.35,1683446190.390625
45.71,1683446190.40625
31.30,1683446190.421875
15.86,1683446190.4375
-0.74,1683446190.453125
-18.05,1683446190.46875
-34.90,1683446190.484375
-49.92,1683446190.5
-62.24,1683446190.515625
-72.11,1683446190.53125
-80.88,1683446190.546875
-90.32,1683446190.5625
-101.59,1683446190.578125
-114.49,1683446190.59375
-127.46,1683446190.609375
-138.35,1683446190.625
-145.47,1683446190.640625
-148.42,1683446190.65625
-148.32,1683446190.671875
-147.28,1683446190.6875
-147.61,1683446190.703125
-151.14,1683446190.71875
-158.73,1683446190.734375
-170.28,1683446190.75
-184.78,1683446190.765625
-200.57,1683446190.78125
-215.47,1683446190.796875
-227.11,1683446190.8125
-233.29,1683446190.828125
-232.41,1683446190.84375
-223.76,1683446190.859375
-207.67,1683446190.875
-185.49,1683446190.890625
-159.26,1683446190.90625
-131.46,1683446190.921875
-104.73,1683446190.9375
-81.60,1683446190.953125
-64.30,1683446190.96875
-54.49,1683446190.984375
-53.10,1683446191.0
-60.09,1683446191.015625
-74.24,1683446191.03125
-93.16,1683446191.046875
-113.31,1683446191.0625
-130.58,1683446191.078125
-141.07,1683446191.09375
-142.03,1683446191.109375
-132.49,1683446191.125
-113.32,1683446191.140625
-86.69,1683446191.15625
-55.10,1683446191.171875
-20.58,1683446191.1875
15.96,1683446191.203125
54.66,1683446191.21875
96.11,1683446191.234375
140.39,1683446191.25
186.11,1683446191.265625
229.93,1683446191.28125
266.98,1683446191.296875
292.13,1683446191.3125
301.65,1683446191.328125
294.68,1683446191.34375
273.51,1683446191.359375
242.62,1683446191.375
206.63,1683446191.390625
168.51,1683446191.40625
129.12,1683446191.421875
88.39,1683446191.4375
47.40,1683446191.453125
9.63,1683446191.46875
-19.60,1683446191.484375
-35.76,1683446191.5
-38.16,1683446191.515625
-31.47,1683446191.53125
-24.38,1683446191.546875
-25.90,1683446191.5625
-41.15,1683446191.578125
-69.13,1683446191.59375
-103.49,1683446191.609375
-135.88,1683446191.625
-159.85,1683446191.640625
-172.90,1683446191.65625
-176.25,1683446191.671875
-172.69,1683446191.6875
-164.37,1683446191.703125
-151.88,1683446191.71875
-134.87,1683446191.734375
-113.32,1683446191.75
-88.39,1683446191.765625
-62.30,1683446191.78125
-37.34,1683446191.796875
-14.88,1683446191.8125
5.01,1683446191.828125
23.15,1683446191.84375
40.38,1683446191.859375
56.93,1683446191.875
72.26,1683446191.890625
85.46,1683446191.90625
95.93,1683446191.921875
103.84,1683446191.9375
110.27,1683446191.953125
116.74,1683446191.96875
124.46,1683446191.984375
133.76,1683446192.0
143.78,1683446192.015625
152.94,1683446192.03125
159.68,1683446192.046875
163.37,1683446192.0625
164.79,1683446192.078125
166.07,1683446192.09375
169.88,1683446192.109375
178.54,1683446192.125
193.07,1683446192.140625
212.41,1683446192.15625
233.45,1683446192.171875
251.55,1683446192.1875
261.46,1683446192.203125
258.59,1683446192.21875
240.43,1683446192.234375
207.66,1683446192.25
164.61,1683446192.265625
118.58,1683446192.28125
77.90,1683446192.296875
49.40,1683446192.3125
36.05,1683446192.328125
36.09,1683446192.34375
44.13,1683446192.359375
53.84,1683446192.375
60.76,1683446192.390625
63.74,1683446192.40625
64.40,1683446192.421875
64.87,1683446192.4375
65.55,1683446192.453125
64.18,1683446192.46875
56.84,1683446192.484375
39.92,1683446192.5
11.92,1683446192.515625
-26.07,1683446192.53125
-71.03,1683446192.546875
-119.08,1683446192.5625
-166.31,1683446192.578125
-208.87,1683446192.59375
-243.10,1683446192.609375
-265.92,1683446192.625
-275.49,1683446192.640625
-272.13,1683446192.65625
-258.59,1683446192.671875
-239.50,1683446192.6875
-219.99,1683446192.703125
-204.32,1683446192.71875
-194.83,1683446192.734375
-191.48,1683446192.75
-192.30,1683446192.765625
-194.04,1683446192.78125
-193.37,1683446192.796875
-187.96,1683446192.8125
-177.34,1683446192.828125
-163.17,1683446192.84375
-148.70,1683446192.859375
-137.64,1683446192.875
-132.79,1683446192.890625
-135.18,1683446192.90625
-143.80,1683446192.921875
-156.09,1683446192.9375
-169.13,1683446192.953125
-180.57,1683446192.96875
-189.26,1683446192.984375
-195.18,1683446193.0
-198.80,1683446193.015625
-200.16,1683446193.03125
-198.39,1683446193.046875
-191.78,1683446193.0625
-178.46,1683446193.078125
-157.22,1683446193.09375
-128.19,1683446193.109375
-92.92,1683446193.125
-53.94,1683446193.140625
-13.99,1683446193.15625
24.62,1683446193.171875
60.37,1683446193.1875
92.51,1683446193.203125
120.66,1683446193.21875
144.49,1683446193.234375
163.50,1683446193.25
177.08,1683446193.265625
184.88,1683446193.28125
187.19,1683446193.296875
185.10,1683446193.3125
180.45,1683446193.328125
175.22,1683446193.34375
171.05,1683446193.359375
168.72,1683446193.375
168.16,1683446193.390625
168.76,1683446193.40625
169.80,1683446193.421875
170.71,1683446193.4375
170.99,1683446193.453125
170.02,1683446193.46875
166.86,1683446193.484375
160.38,1683446193.5
149.57,1683446193.515625
133.98,1683446193.53125
113.97,1683446193.546875
90.68,1683446193.5625
65.78,1683446193.578125
41.02,1683446193.59375
17.74,1683446193.609375
-3.42,1683446193.625
-22.73,1683446193.640625
-41.06,1683446193.65625
-59.33,1683446193.671875
-77.74,1683446193.6875
-95.29,1683446193.703125
-109.73,1683446193.71875
-118.27,1683446193.734375
-118.66,1683446193.75
-110.12,1683446193.765625
-93.82,1683446193.78125
-72.41,1683446193.796875
-49.10,1683446193.8125
-26.60,1683446193.828125
-6.55,1683446193.84375
10.47,1683446193.859375
24.41,1683446193.875
35.32,1683446193.890625
43.11,1683446193.90625
47.75,1683446193.921875
49.55,1683446193.9375
49.25,1683446193.953125
47.83,1683446193.96875
45.93,1683446193.984375
43.52,1683446194.0
39.88,1683446194.015625
33.99,1683446194.03125
25.19,1683446194.046875
13.53,1683446194.0625
-0.26,1683446194.078125
-15.24,1683446194.09375
-30.78,1683446194.109375
-46.87,1683446194.125
-64.06,1683446194.140625
-83.03,1683446194.15625
-104.25,1683446194.171875
-127.56,1683446194.1875
-151.99,1683446194.203125
-175.60,1683446194.21875
-195.47,1683446194.234375
-207.99,1683446194.25
-209.60,1683446194.265625
-197.87,1683446194.28125
-172.73,1683446194.296875
-137.06,1683446194.3125
-96.29,1683446194.328125
-56.78,1683446194.34375
-23.77,1683446194.359375
0.28,1683446194.375
16.18,1683446194.390625
27.13,1683446194.40625
37.05,1683446194.421875
49.00,1683446194.4375
64.35,1683446194.453125
82.91,1683446194.46875
103.51,1683446194.484375
124.65,1683446194.5
144.76,1683446194.515625
162.20,1683446194.53125
175.37,1683446194.546875
182.94,1683446194.5625
184.30,1683446194.578125
179.88,1683446194.59375
171.09,1683446194.609375
159.85,1683446194.625
147.96,1683446194.640625
136.70,1683446194.65625
126.55,1683446194.671875
117.32,1683446194.6875
108.45,1683446194.703125
99.27,1683446194.71875
89.40,1683446194.734375
78.92,1683446194.75
68.32,1683446194.765625
58.32,1683446194.78125
49.33,1683446194.796875
41.14,1683446194.8125
32.82,1683446194.828125
23.11,1683446194.84375
11.03,1683446194.859375
-3.58,1683446194.875
-19.86,1683446194.890625
-36.33,1683446194.90625
-51.60,1683446194.921875
-65.05,1683446194.9375
-77.13,1683446194.953125
-89.11,1683446194.96875
-102.38,1683446194.984375
-117.62,1683446195.0
-134.09,1683446195.015625
-149.62,1683446195.03125
-161.08,1683446195.046875
-165.47,1683446195.0625
-160.94,1683446195.078125
-147.55,1683446195.09375
-127.33,1683446195.109375
-103.54,1683446195.125
-79.52,1683446195.140625
-57.55,1683446195.15625
-38.28,1683446195.171875
-20.95,1683446195.1875
-4.23,1683446195.203125
12.70,1683446195.21875
29.51,1683446195.234375
44.86,1683446195.25
56.94,1683446195.265625
64.44,1683446195.28125
67.12,1683446195.296875
65.65,1683446195.3125
61.00,1683446195.328125
53.85,1683446195.34375
44.65,1683446195.359375
34.14,1683446195.375
24.03,1683446195.390625
16.82,1683446195.40625
14.83,1683446195.421875
18.68,1683446195.4375
26.48,1683446195.453125
34.29,1683446195.46875
37.76,1683446195.484375
34.11,1683446195.5
23.19,1683446195.515625
7.09,1683446195.53125
-11.24,1683446195.546875
-29.40,1683446195.5625
-45.98,1683446195.578125
-60.00,1683446195.59375
-70.14,1683446195.609375
-74.72,1683446195.625
-72.58,1683446195.640625
-64.54,1683446195.65625
-53.90,1683446195.671875
-45.50,1683446195.6875
-43.45,1683446195.703125
-48.88,1683446195.71875
-59.08,1683446195.734375
-68.36,1683446195.75
-70.67,1683446195.765625
-62.20,1683446195.78125
-42.91,1683446195.796875
-16.24,1683446195.8125
12.72,1683446195.828125
39.37,1683446195.84375
61.10,1683446195.859375
77.59,1683446195.875
89.98,1683446195.890625
99.65,1683446195.90625
107.29,1683446195.921875
112.59,1683446195.9375
114.65,1683446195.953125
112.65,1683446195.96875
106.38,1683446195.984375
96.45,1683446196.0
84.22,1683446196.015625
71.50,1683446196.03125
60.15,1683446196.046875
51.56,1683446196.0625
46.38,1683446196.078125
44.23,1683446196.09375
43.96,1683446196.109375
44.05,1683446196.125
43.28,1683446196.140625
41.11,1683446196.15625
37.79,1683446196.171875
33.98,1683446196.1875
30.19,1683446196.203125
26.42,1683446196.21875
22.09,1683446196.234375
16.39,1683446196.25
8.81,1683446196.265625
-0.61,1683446196.28125
-11.30,1683446196.296875
-22.57,1683446196.3125
-34.06,1683446196.328125
-46.06,1683446196.34375
-59.45,1683446196.359375
-75.26,1683446196.375
-94.18,1683446196.390625
-116.00,1683446196.40625
-139.37,1683446196.421875
-162.05,1683446196.4375
-181.60,1683446196.453125
-196.01,1683446196.46875
-204.41,1683446196.484375
-206.99,1683446196.5
-204.55,1683446196.515625
-197.77,1683446196.53125
-186.50,1683446196.546875
-169.66,1683446196.5625
-145.58,1683446196.578125
-112.84,1683446196.59375
-71.26,1683446196.609375
-22.61,1683446196.625
29.31,1683446196.640625
79.36,1683446196.65625
122.42,1683446196.671875
154.93,1683446196.6875
175.98,1683446196.703125
187.33,1683446196.71875
192.45,1683446196.734375
194.89,1683446196.75
196.94,1683446196.765625
199.02,1683446196.78125
200.12,1683446196.796875
198.81,1683446196.8125
194.17,1683446196.828125
186.17,1683446196.84375
175.26,1683446196.859375
161.95,1683446196.875
146.33,1683446196.890625
128.16,1683446196.90625
107.43,1683446196.921875
84.51,1683446196.9375
60.20,1683446196.953125
35.45,1683446196.96875
11.21,1683446196.984375
-11.50,1683446197.0
-31.41,1683446197.015625
-47.15,1683446197.03125
-57.93,1683446197.046875
-64.27,1683446197.0625
-68.37,1683446197.078125
-73.50,1683446197.09375
-82.65,1683446197.109375
-97.07,1683446197.125
-115.46,1683446197.140625
-134.67,1683446197.15625
-151.11,1683446197.171875
-162.40,1683446197.1875
-167.98,1683446197.203125
-168.77,1683446197.21875
-165.88,1683446197.234375
-159.66,1683446197.25
-149.58,1683446197.265625
-134.89,1683446197.28125
-115.71,1683446197.296875
-93.54,1683446197.3125
-70.99,1683446197.328125
-50.82,1683446197.34375
-35.05,1683446197.359375
-24.19,1683446197.375
-17.33,1683446197.390625
-12.83,1683446197.40625
-9.07,1683446197.421875
-5.13,1683446197.4375
-1.00,1683446197.453125
2.75,1683446197.46875
5.35,1683446197.484375
6.21,1683446197.5
5.10,1683446197.515625
2.18,1683446197.53125
-2.19,1683446197.546875
-7.39,1683446197.5625
-12.55,1683446197.578125
-16.55,1683446197.59375
-18.06,1683446197.609375
-15.81,1683446197.625
-8.82,1683446197.640625
3.18,1683446197.65625
19.55,1683446197.671875
38.74,1683446197.6875
58.62,1683446197.703125
77.02,1683446197.71875
92.34,1683446197.734375
103.84,1683446197.75
111.67,1683446197.765625
116.37,1683446197.78125
118.38,1683446197.796875
117.75,1683446197.8125
114.14,1683446197.828125
107.16,1683446197.84375
96.73,1683446197.859375
83.20,1683446197.875
67.24,1683446197.890625
49.56,1683446197.90625
30.75,1683446197.921875
11.54,1683446197.9375
-7.03,1683446197.953125
-23.32,1683446197.96875
-35.42,1683446197.984375
-41.64,1683446198.0
-41.15,1683446198.015625
-34.35,1683446198.03125
-22.71,1683446198.046875
-8.30,1683446198.0625
6.92,1683446198.078125
21.53,1683446198.09375
34.76,1683446198.109375
46.37,1683446198.125
56.39,1683446198.140625
64.88,1683446198.15625
71.89,1683446198.171875
77.39,1683446198.1875
81.34,1683446198.203125
83.68,1683446198.21875
84.40,1683446198.234375
83.50,1683446198.25
81.22,1683446198.265625
77.98,1683446198.28125
74.34,1683446198.296875
70.79,1683446198.3125
67.52,1683446198.328125
64.37,1683446198.34375
60.86,1683446198.359375
56.45,1683446198.375
50.74,1683446198.390625
43.57,1683446198.40625
34.93,1683446198.421875
24.83,1683446198.4375
13.15,1683446198.453125
-0.23,1683446198.46875
-15.16,1683446198.484375
-31.17,1683446198.5
-47.39,1683446198.515625
-62.89,1683446198.53125
-77.10,1683446198.546875
-90.17,1683446198.5625
-102.97,1683446198.578125
-116.76,1683446198.59375
-132.75,1683446198.609375
-151.46,1683446198.625
-172.34,1683446198.640625
-193.78,1683446198.65625
-213.33,1683446198.671875
-228.14,1683446198.6875
-235.34,1683446198.703125
-232.59,1683446198.71875
-218.70,1683446198.734375
-194.23,1683446198.75
-161.72,1683446198.765625
-125.39,1683446198.78125
-89.92,1683446198.796875
-59.02,1683446198.8125
-34.26,1683446198.828125
-14.93,1683446198.84375
1.05,1683446198.859375
15.63,1683446198.875
29.35,1683446198.890625
41.14,1683446198.90625
49.24,1683446198.921875
52.53,1683446198.9375
51.56,1683446198.953125
48.39,1683446198.96875
45.57,1683446198.984375
44.64,1683446199.0
45.33,1683446199.015625
45.81,1683446199.03125
43.89,1683446199.046875
38.20,1683446199.0625
29.14,1683446199.078125
18.66,1683446199.09375
9.22,1683446199.109375
2.57,1683446199.125
-1.12,1683446199.140625
-3.41,1683446199.15625
-6.75,1683446199.171875
-13.35,1683446199.1875
-24.35,1683446199.203125
-39.34,1683446199.21875
-56.58,1683446199.234375
-73.47,1683446199.25
-87.24,1683446199.265625
-95.53,1683446199.28125
-96.99,1683446199.296875
-91.78,1683446199.3125
-81.53,1683446199.328125
-68.88,1683446199.34375
-56.32,1683446199.359375
-45.10,1683446199.375
-34.69,1683446199.390625
-23.17,1683446199.40625
-8.51,1683446199.421875
10.11,1683446199.4375
31.53,1683446199.453125
53.13,1683446199.46875
71.84,1683446199.484375
85.41,1683446199.5
92.94,1683446199.515625
94.85,1683446199.53125
92.54,1683446199.546875
87.89,1683446199.5625
82.94,1683446199.578125
79.44,1683446199.59375
78.16,1683446199.609375
78.32,1683446199.625
77.38,1683446199.640625
71.85,1683446199.65625
58.74,1683446199.671875
37.19,1683446199.6875
9.56,1683446199.703125
-18.95,1683446199.71875
-41.77,1683446199.734375
-53.35,1683446199.75
-50.99,1683446199.765625
-35.70,1683446199.78125
-11.59,1683446199.796875
15.56,1683446199.8125
40.04,1683446199.828125
57.44,1683446199.84375
65.25,1683446199.859375
62.94,1683446199.875
51.47,1683446199.890625
32.85,1683446199.90625
9.72,1683446199.921875
-14.98,1683446199.9375
-38.48,1683446199.953125
-58.73,1683446199.96875
-75.08,1683446199.984375
-88.84,1683446200.0
-102.77,1683446200.015625
-120.36,1683446200.03125
-144.22,1683446200.046875
-174.76,1683446200.0625
-209.37,1683446200.078125
-242.90,1683446200.09375
-269.04,1683446200.109375
-282.61,1683446200.125
-281.47,1683446200.140625
-266.81,1683446200.15625
-242.39,1683446200.171875
-212.83,1683446200.1875
-181.90,1683446200.203125
-151.68,1683446200.21875
-122.83,1683446200.234375
-95.28,1683446200.25
-69.12,1683446200.265625
-44.85,1683446200.28125
-22.21,1683446200.296875
-0.24,1683446200.3125
22.74,1683446200.328125
48.68,1683446200.34375
79.06,1683446200.359375
114.10,1683446200.375
153.40,1683446200.390625
195.34,1683446200.40625
237.33,1683446200.421875
277.41,1683446200.4375
313.42,1683446200.453125
342.80,1683446200.46875
363.05,1683446200.484375
372.98,1683446200.5
373.16,1683446200.515625
367.79,1683446200.53125
361.83,1683446200.546875
358.60,1683446200.5625
360.31,1683446200.578125
366.11,1683446200.59375
372.45,1683446200.609375
374.67,1683446200.625
369.24,1683446200.640625
353.99,1683446200.65625
330.57,1683446200.671875
300.22,1683446200.6875
262.00,1683446200.703125
216.33,1683446200.71875
165.18,1683446200.734375
112.84,1683446200.75
65.73,1683446200.765625
31.08,1683446200.78125
13.14,1683446200.796875
15.14,1683446200.8125
34.67,1683446200.828125
48.18,1683446200.84375
36.21,1683446200.859375
-7.78,1683446200.875
-73.67,1683446200.890625
-143.13,1683446200.90625
-193.14,1683446200.921875
-223.18,1683446200.9375
-234.68,1683446200.953125
-228.51,1683446200.96875
-204.53,1683446200.984375
-162.76,1683446201.0
-103.35,1683446201.015625
-30.42,1683446201.03125
47.23,1683446201.046875
117.80,1683446201.0625
158.99,1683446201.078125
158.12,1683446201.09375
116.45,1683446201.109375
49.51,1683446201.125
-19.64,1683446201.140625
-72.91,1683446201.15625
-104.39,1683446201.171875
-118.20,1683446201.1875
-122.97,1683446201.203125
-126.97,1683446201.21875
-131.29,1683446201.234375
-133.89,1683446201.25
-132.80,1683446201.265625
-127.60,1683446201.28125
-120.15,1683446201.296875
-113.87,1683446201.3125
-111.08,1683446201.328125
-112.32,1683446201.34375
-116.95,1683446201.359375
-121.00,1683446201.375
-120.84,1683446201.390625
-114.60,1683446201.40625
-103.08,1683446201.421875
-85.89,1683446201.4375
-66.18,1683446201.453125
-47.03,1683446201.46875
-30.48,1683446201.484375
-17.42,1683446201.5
-6.50,1683446201.515625
3.74,1683446201.53125
14.31,1683446201.546875
23.99,1683446201.5625
30.85,1683446201.578125
31.96,1683446201.59375
25.81,1683446201.609375
12.34,1683446201.625
-7.44,1683446201.640625
-31.43,1683446201.65625
-57.75,1683446201.671875
-84.33,1683446201.6875
-111.54,1683446201.703125
-134.51,1683446201.71875
-152.11,1683446201.734375
-164.25,1683446201.75
-171.88,1683446201.765625
-176.70,1683446201.78125
-180.21,1683446201.796875
-187.94,1683446201.8125
-195.48,1683446201.828125
-197.43,1683446201.84375
-187.55,1683446201.859375
-161.54,1683446201.875
-117.58,1683446201.890625
-57.62,1683446201.90625
12.97,1683446201.921875
87.06,1683446201.9375
157.70,1683446201.953125
220.52,1683446201.96875
267.96,1683446201.984375
293.31,1683446202.0
293.00,1683446202.015625
268.72,1683446202.03125
226.78,1683446202.046875
176.10,1683446202.0625
125.53,1683446202.078125
81.47,1683446202.09375
47.20,1683446202.109375
20.68,1683446202.125
-1.73,1683446202.140625
-22.58,1683446202.15625
-42.20,1683446202.171875
-59.55,1683446202.1875
-73.36,1683446202.203125
-83.18,1683446202.21875
-89.00,1683446202.234375
-83.59,1683446202.25
-63.63,1683446202.265625
-31.76,1683446202.28125
5.38,1683446202.296875
41.32,1683446202.3125
72.45,1683446202.328125
97.75,1683446202.34375
116.93,1683446202.359375
130.11,1683446202.375
137.98,1683446202.390625
140.11,1683446202.40625
135.87,1683446202.421875
125.58,1683446202.4375
110.33,1683446202.453125
91.44,1683446202.46875
70.05,1683446202.484375
45.91,1683446202.5
18.38,1683446202.515625
-13.14,1683446202.53125
-42.51,1683446202.546875
-66.85,1683446202.5625
-84.48,1683446202.578125
-95.14,1683446202.59375
-99.09,1683446202.609375
-96.60,1683446202.625
-89.35,1683446202.640625
-78.95,1683446202.65625
-66.52,1683446202.671875
-52.97,1683446202.6875
-39.47,1683446202.703125
-25.74,1683446202.71875
-11.39,1683446202.734375
0.02,1683446202.75
11.12,1683446202.765625
22.34,1683446202.78125
33.09,1683446202.796875
42.66,1683446202.8125
50.64,1683446202.828125
56.51,1683446202.84375
61.02,1683446202.859375
64.44,1683446202.875
67.19,1683446202.890625
69.63,1683446202.90625
70.22,1683446202.921875
66.93,1683446202.9375
57.96,1683446202.953125
41.89,1683446202.96875
16.94,1683446202.984375
-11.36,1683446203.0
-40.46,1683446203.015625
-68.79,1683446203.03125
-95.49,1683446203.046875
-121.64,1683446203.0625
-149.03,1683446203.078125
-179.68,1683446203.09375
-215.62,1683446203.109375
-258.56,1683446203.125
-308.39,1683446203.140625
-363.08,1683446203.15625
-416.64,1683446203.171875
-460.00,1683446203.1875
-484.42,1683446203.203125
-484.11,1683446203.21875
-458.31,1683446203.234375
-411.59,1683446203.25
-351.98,1683446203.265625
-287.62,1683446203.28125
-224.84,1683446203.296875
-166.15,1683446203.3125
-111.45,1683446203.328125
-60.36,1683446203.34375
-13.41,1683446203.359375
28.05,1683446203.375
62.59,1683446203.390625
89.55,1683446203.40625
109.41,1683446203.421875
122.87,1683446203.4375
130.87,1683446203.453125
133.77,1683446203.46875
131.11,1683446203.484375
121.26,1683446203.5
103.36,1683446203.515625
78.89,1683446203.53125
51.33,1683446203.546875
24.78,1683446203.5625
1.16,1683446203.578125
-18.57,1683446203.59375
-34.47,1683446203.609375
-47.21,1683446203.625
-58.00,1683446203.640625
-67.82,1683446203.65625
-77.19,1683446203.671875
-86.18,1683446203.6875
-94.60,1683446203.703125
-102.33,1683446203.71875
-109.31,1683446203.734375
-115.85,1683446203.75
-122.72,1683446203.765625
-130.93,1683446203.78125
-141.27,1683446203.796875
-154.11,1683446203.8125
-169.53,1683446203.828125
-187.31,1683446203.84375
-207.03,1683446203.859375
-227.91,1683446203.875
-249.01,1683446203.890625
-269.28,1683446203.90625
-287.56,1683446203.921875
-302.36,1683446203.9375
-312.02,1683446203.953125
-314.91,1683446203.96875
-309.66,1683446203.984375
-295.29,1683446204.0
-271.35,1683446204.015625
-238.03,1683446204.03125
-196.25,1683446204.046875
-147.59,1683446204.0625
-94.07,1683446204.078125
-38.04,1683446204.09375
17.98,1683446204.109375
71.52,1683446204.125
120.28,1683446204.140625
162.43,1683446204.15625
196.63,1683446204.171875
222.05,1683446204.1875
238.43,1683446204.203125
246.06,1683446204.21875
245.74,1683446204.234375
238.63,1683446204.25
226.13,1683446204.265625
209.83,1683446204.28125
191.32,1683446204.296875
172.13,1683446204.3125
153.53,1683446204.328125
136.57,1683446204.34375
121.89,1683446204.359375
109.76,1683446204.375
100.09,1683446204.390625
92.47,1683446204.40625
86.30,1683446204.421875
80.86,1683446204.4375
75.43,1683446204.453125
69.36,1683446204.46875
62.17,1683446204.484375
53.61,1683446204.5
43.66,1683446204.515625
32.54,1683446204.53125
20.65,1683446204.546875
8.54,1683446204.5625
-3.19,1683446204.578125
-13.92,1683446204.59375
-23.11,1683446204.609375
-30.37,1683446204.625
-35.52,1683446204.640625
-38.59,1683446204.65625
-39.83,1683446204.671875
-39.55,1683446204.6875
-38.14,1683446204.703125
-35.92,1683446204.71875
-33.12,1683446204.734375
-29.87,1683446204.75
-26.26,1683446204.765625
-22.41,1683446204.78125
-18.50,1683446204.796875
-14.77,1683446204.8125
-11.50,1683446204.828125
-8.85,1683446204.84375
-6.78,1683446204.859375
-5.05,1683446204.875
-3.28,1683446204.890625
-1.09,1683446204.90625
1.74,1683446204.921875
5.20,1683446204.9375
9.04,1683446204.953125
12.97,1683446204.96875
16.83,1683446204.984375
20.72,1683446205.0
25.02,1683446205.015625
30.29,1683446205.03125
36.98,1683446205.046875
45.29,1683446205.0625
55.00,1683446205.078125
65.69,1683446205.09375
76.93,1683446205.109375
88.55,1683446205.125
100.86,1683446205.140625
114.58,1683446205.15625
130.70,1683446205.171875
150.24,1683446205.1875
174.09,1683446205.203125
202.85,1683446205.21875
236.55,1683446205.234375
274.33,1683446205.25
