1683357481.00,timestamp
-0.00,1683357481.0
-0.00,1683357481.015625
-0.00,1683357481.03125
-0.00,1683357481.046875
-0.00,1683357481.0625
-0.00,1683357481.078125
-0.00,1683357481.09375
-0.00,1683357481.109375
-0.00,1683357481.125
-0.00,1683357481.140625
0.00,1683357481.15625
0.01,1683357481.171875
0.01,1683357481.1875
-0.00,1683357481.203125
-0.03,1683357481.21875
-0.05,1683357481.234375
-0.05,1683357481.25
0.00,1683357481.265625
0.13,1683357481.28125
0.36,1683357481.296875
0.66,1683357481.3125
1.01,1683357481.328125
1.37,1683357481.34375
1.72,1683357481.359375
2.06,1683357481.375
2.40,1683357481.390625
2.79,1683357481.40625
3.24,1683357481.421875
3.80,1683357481.4375
4.42,1683357481.453125
5.06,1683357481.46875
5.66,1683357481.484375
6.20,1683357481.5
6.68,1683357481.515625
7.15,1683357481.53125
7.68,1683357481.546875
8.31,1683357481.5625
9.14,1683357481.578125
10.09,1683357481.59375
11.04,1683357481.609375
11.88,1683357481.625
12.56,1683357481.640625
13.14,1683357481.65625
13.76,1683357481.671875
14.65,1683357481.6875
15.96,1683357481.703125
17.91,1683357481.71875
20.32,1683357481.734375
22.90,1683357481.75
25.38,1683357481.765625
27.58,1683357481.78125
29.57,1683357481.796875
31.68,1683357481.8125
34.32,1683357481.828125
37.81,1683357481.84375
42.54,1683357481.859375
48.15,1683357481.875
54.10,1683357481.890625
59.83,1683357481.90625
64.97,1683357481.921875
69.58,1683357481.9375
74.14,1683357481.953125
79.34,1683357481.96875
85.71,1683357481.984375
93.76,1683357482.0
103.00,1683357482.015625
112.62,1683357482.03125
121.73,1683357482.046875
129.77,1683357482.0625
136.75,1683357482.078125
143.30,1683357482.09375
150.75,1683357482.109375
157.77,1683357482.125
166.64,1683357482.140625
177.95,1683357482.15625
191.79,1683357482.171875
206.97,1683357482.1875
220.57,1683357482.203125
228.25,1683357482.21875
225.36,1683357482.234375
208.53,1683357482.25
176.87,1683357482.265625
132.76,1683357482.28125
80.05,1683357482.296875
23.07,1683357482.3125
-34.94,1683357482.328125
-92.44,1683357482.34375
-149.16,1683357482.359375
-205.23,1683357482.375
-260.37,1683357482.390625
-313.74,1683357482.40625
-363.87,1683357482.421875
-409.83,1683357482.4375
-450.91,1683357482.453125
-486.50,1683357482.46875
-515.74,1683357482.484375
-537.23,1683357482.5
-549.22,1683357482.515625
-549.96,1683357482.53125
-538.37,1683357482.546875
-514.21,1683357482.5625
-478.67,1683357482.578125
-433.88,1683357482.59375
-382.45,1683357482.609375
-327.02,1683357482.625
-269.84,1683357482.640625
-212.63,1683357482.65625
-156.66,1683357482.671875
-102.95,1683357482.6875
-52.37,1683357482.703125
-5.90,1683357482.71875
35.58,1683357482.734375
71.43,1683357482.75
101.35,1683357482.765625
125.50,1683357482.78125
144.38,1683357482.796875
158.69,1683357482.8125
169.15,1683357482.828125
176.37,1683357482.84375
180.75,1683357482.859375
182.57,1683357482.875
182.07,1683357482.890625
179.51,1683357482.90625
175.23,1683357482.921875
169.65,1683357482.9375
163.18,1683357482.953125
156.15,1683357482.96875
148.81,1683357482.984375
141.30,1683357483.0
133.69,1683357483.015625
126.02,1683357483.03125
118.33,1683357483.046875
110.69,1683357483.0625
103.16,1683357483.078125
95.80,1683357483.09375
88.68,1683357483.109375
81.83,1683357483.125
75.25,1683357483.140625
68.95,1683357483.15625
62.95,1683357483.171875
57.25,1683357483.1875
51.86,1683357483.203125
46.78,1683357483.21875
42.03,1683357483.234375
37.59,1683357483.25
33.45,1683357483.265625
29.61,1683357483.28125
26.07,1683357483.296875
22.81,1683357483.3125
19.83,1683357483.328125
17.11,1683357483.34375
14.67,1683357483.359375
12.48,1683357483.375
10.54,1683357483.390625
8.83,1683357483.40625
7.35,1683357483.421875
6.07,1683357483.4375
4.97,1683357483.453125
4.05,1683357483.46875
3.27,1683357483.484375
2.62,1683357483.5
2.09,1683357483.515625
1.65,1683357483.53125
1.30,1683357483.546875
1.01,1683357483.5625
0.79,1683357483.578125
0.61,1683357483.59375
0.47,1683357483.609375
0.37,1683357483.625
0.28,1683357483.640625
0.22,1683357483.65625
0.18,1683357483.671875
0.15,1683357483.6875
0.13,1683357483.703125
0.12,1683357483.71875
0.13,1683357483.734375
0.14,1683357483.75
0.15,1683357483.765625
0.18,1683357483.78125
0.20,1683357483.796875
0.24,1683357483.8125
0.28,1683357483.828125
0.32,1683357483.84375
0.36,1683357483.859375
0.40,1683357483.875
0.45,1683357483.890625
0.49,1683357483.90625
0.54,1683357483.921875
0.59,1683357483.9375
0.65,1683357483.953125
0.70,1683357483.96875
0.76,1683357483.984375
0.83,1683357484.0
0.90,1683357484.015625
0.97,1683357484.03125
1.06,1683357484.046875
1.15,1683357484.0625
1.26,1683357484.078125
1.38,1683357484.09375
1.51,1683357484.109375
1.66,1683357484.125
1.82,1683357484.140625
2.01,1683357484.15625
2.22,1683357484.171875
2.45,1683357484.1875
2.70,1683357484.203125
2.98,1683357484.21875
3.29,1683357484.234375
3.63,1683357484.25
4.00,1683357484.265625
4.41,1683357484.28125
4.85,1683357484.296875
5.33,1683357484.3125
5.84,1683357484.328125
6.39,1683357484.34375
6.99,1683357484.359375
7.62,1683357484.375
8.30,1683357484.390625
9.02,1683357484.40625
9.78,1683357484.421875
10.60,1683357484.4375
11.45,1683357484.453125
12.35,1683357484.46875
13.29,1683357484.484375
14.29,1683357484.5
15.35,1683357484.515625
16.48,1683357484.53125
17.66,1683357484.546875
18.91,1683357484.5625
20.17,1683357484.578125
21.43,1683357484.59375
22.60,1683357484.609375
23.61,1683357484.625
24.35,1683357484.640625
24.68,1683357484.65625
24.50,1683357484.671875
23.69,1683357484.6875
22.20,1683357484.703125
19.97,1683357484.71875
17.04,1683357484.734375
13.49,1683357484.75
9.43,1683357484.765625
5.03,1683357484.78125
0.52,1683357484.796875
-3.90,1683357484.8125
-8.02,1683357484.828125
-11.65,1683357484.84375
-14.66,1683357484.859375
-16.95,1683357484.875
-18.50,1683357484.890625
-19.32,1683357484.90625
-19.45,1683357484.921875
-19.00,1683357484.9375
-18.08,1683357484.953125
-16.79,1683357484.96875
-15.22,1683357484.984375
-13.48,1683357485.0
-11.66,1683357485.015625
-9.85,1683357485.03125
-8.09,1683357485.046875
-6.40,1683357485.0625
-4.81,1683357485.078125
-3.30,1683357485.09375
-1.82,1683357485.109375
-0.29,1683357485.125
1.29,1683357485.140625
2.93,1683357485.15625
4.58,1683357485.171875
6.25,1683357485.1875
7.95,1683357485.203125
9.62,1683357485.21875
11.28,1683357485.234375
13.02,1683357485.25
14.91,1683357485.265625
16.99,1683357485.28125
19.25,1683357485.296875
21.62,1683357485.3125
24.08,1683357485.328125
26.71,1683357485.34375
29.37,1683357485.359375
32.12,1683357485.375
35.12,1683357485.390625
38.53,1683357485.40625
42.33,1683357485.421875
46.38,1683357485.4375
50.40,1683357485.453125
54.15,1683357485.46875
57.64,1683357485.484375
60.60,1683357485.5
63.25,1683357485.515625
65.97,1683357485.53125
69.15,1683357485.546875
72.86,1683357485.5625
76.79,1683357485.578125
80.33,1683357485.59375
82.92,1683357485.609375
84.36,1683357485.625
84.28,1683357485.640625
83.01,1683357485.65625
81.22,1683357485.671875
79.36,1683357485.6875
77.21,1683357485.703125
73.68,1683357485.71875
66.73,1683357485.734375
53.64,1683357485.75
36.49,1683357485.765625
16.06,1683357485.78125
-6.36,1683357485.796875
-29.26,1683357485.8125
-51.32,1683357485.828125
-71.89,1683357485.84375
-91.19,1683357485.859375
-110.07,1683357485.875
-129.84,1683357485.890625
-151.88,1683357485.90625
-178.06,1683357485.921875
-209.16,1683357485.9375
-244.14,1683357485.953125
-279.47,1683357485.96875
-309.25,1683357485.984375
-326.60,1683357486.0
-325.80,1683357486.015625
-304.50,1683357486.03125
-264.71,1683357486.046875
-212.74,1683357486.0625
-156.32,1683357486.078125
-102.23,1683357486.09375
-54.61,1683357486.109375
-14.91,1683357486.125
17.14,1683357486.140625
42.16,1683357486.15625
60.38,1683357486.171875
71.91,1683357486.1875
76.99,1683357486.203125
77.00,1683357486.21875
74.27,1683357486.234375
71.32,1683357486.25
70.04,1683357486.265625
71.13,1683357486.28125
74.01,1683357486.296875
77.29,1683357486.3125
79.50,1683357486.328125
79.48,1683357486.34375
76.93,1683357486.359375
72.34,1683357486.375
66.64,1683357486.390625
60.65,1683357486.40625
54.75,1683357486.421875
48.71,1683357486.4375
41.93,1683357486.453125
33.87,1683357486.46875
24.39,1683357486.484375
14.01,1683357486.5
3.66,1683357486.515625
-5.75,1683357486.53125
-13.83,1683357486.546875
-20.82,1683357486.5625
-27.54,1683357486.578125
-34.97,1683357486.59375
-43.93,1683357486.609375
-54.92,1683357486.625
-68.07,1683357486.640625
-83.05,1683357486.65625
-98.94,1683357486.671875
-113.98,1683357486.6875
-125.61,1683357486.703125
-130.85,1683357486.71875
-127.18,1683357486.734375
-113.41,1683357486.75
-90.33,1683357486.765625
-60.54,1683357486.78125
-27.74,1683357486.796875
4.47,1683357486.8125
33.37,1683357486.828125
57.51,1683357486.84375
76.41,1683357486.859375
90.02,1683357486.875
98.31,1683357486.890625
101.22,1683357486.90625
99.07,1683357486.921875
92.89,1683357486.9375
84.50,1683357486.953125
76.12,1683357486.96875
69.70,1683357486.984375
66.25,1683357487.0
65.50,1683357487.015625
66.19,1683357487.03125
66.66,1683357487.046875
65.64,1683357487.0625
62.70,1683357487.078125
58.20,1683357487.09375
53.00,1683357487.109375
47.82,1683357487.125
42.94,1683357487.140625
38.00,1683357487.15625
32.26,1683357487.171875
24.98,1683357487.1875
15.77,1683357487.203125
4.88,1683357487.21875
-6.99,1683357487.234375
-18.80,1683357487.25
-29.69,1683357487.265625
-39.18,1683357487.28125
-47.40,1683357487.296875
-55.01,1683357487.3125
-62.93,1683357487.328125
-72.18,1683357487.34375
-83.55,1683357487.359375
-97.40,1683357487.375
-113.36,1683357487.390625
-130.01,1683357487.40625
-144.75,1683357487.421875
-154.16,1683357487.4375
-154.81,1683357487.453125
-144.40,1683357487.46875
-122.70,1683357487.484375
-91.85,1683357487.5
-55.77,1683357487.515625
-18.91,1683357487.53125
15.00,1683357487.546875
43.80,1683357487.5625
66.86,1683357487.578125
84.51,1683357487.59375
97.30,1683357487.609375
105.47,1683357487.625
109.11,1683357487.640625
108.43,1683357487.65625
104.23,1683357487.671875
97.95,1683357487.6875
91.39,1683357487.703125
86.08,1683357487.71875
82.82,1683357487.734375
81.40,1683357487.75
80.84,1683357487.765625
79.91,1683357487.78125
77.67,1683357487.796875
73.85,1683357487.8125
68.84,1683357487.828125
63.43,1683357487.84375
58.29,1683357487.859375
53.67,1683357487.875
49.24,1683357487.890625
44.28,1683357487.90625
37.99,1683357487.921875
29.90,1683357487.9375
20.08,1683357487.953125
9.14,1683357487.96875
-1.99,1683357487.984375
-12.43,1683357488.0
-21.73,1683357488.015625
-30.01,1683357488.03125
-37.89,1683357488.046875
-46.26,1683357488.0625
-56.05,1683357488.078125
-67.96,1683357488.09375
-82.32,1683357488.109375
-98.73,1683357488.125
-115.85,1683357488.140625
-131.21,1683357488.15625
-141.56,1683357488.171875
-143.64,1683357488.1875
-135.23,1683357488.203125
-116.06,1683357488.21875
-88.08,1683357488.234375
-54.91,1683357488.25
-20.64,1683357488.265625
11.26,1683357488.28125
38.68,1683357488.296875
60.79,1683357488.3125
77.61,1683357488.328125
89.38,1683357488.34375
96.29,1683357488.359375
98.57,1683357488.375
96.80,1683357488.390625
92.03,1683357488.40625
85.71,1683357488.421875
79.29,1683357488.4375
73.79,1683357488.453125
69.52,1683357488.46875
66.09,1683357488.484375
62.78,1683357488.5
58.94,1683357488.515625
54.34,1683357488.53125
49.23,1683357488.546875
44.18,1683357488.5625
39.62,1683357488.578125
35.51,1683357488.59375
31.28,1683357488.609375
26.02,1683357488.625
18.93,1683357488.640625
9.67,1683357488.65625
-1.38,1683357488.671875
-13.31,1683357488.6875
-25.03,1683357488.703125
-35.69,1683357488.71875
-44.90,1683357488.734375
-52.89,1683357488.75
-60.30,1683357488.765625
-68.03,1683357488.78125
-77.11,1683357488.796875
-88.47,1683357488.8125
-102.63,1683357488.828125
-119.24,1683357488.84375
-136.69,1683357488.859375
-152.05,1683357488.875
-161.58,1683357488.890625
-161.83,1683357488.90625
-150.81,1683357488.921875
-128.82,1683357488.9375
-98.40,1683357488.953125
-63.51,1683357488.96875
-28.25,1683357488.984375
4.18,1683357489.0
31.98,1683357489.015625
54.46,1683357489.03125
71.55,1683357489.046875
83.36,1683357489.0625
90.11,1683357489.078125
92.33,1683357489.09375
91.09,1683357489.109375
87.92,1683357489.125
84.33,1683357489.140625
81.40,1683357489.15625
79.44,1683357489.171875
77.98,1683357489.1875
76.23,1683357489.203125
73.49,1683357489.21875
69.61,1683357489.234375
64.93,1683357489.25
60.08,1683357489.265625
55.44,1683357489.28125
50.90,1683357489.296875
45.72,1683357489.3125
38.91,1683357489.328125
29.70,1683357489.34375
17.98,1683357489.359375
4.42,1683357489.375
-9.75,1683357489.390625
-23.24,1683357489.40625
-35.20,1683357489.421875
-45.41,1683357489.4375
-54.36,1683357489.453125
-62.94,1683357489.46875
-72.25,1683357489.484375
-83.31,1683357489.5
-96.82,1683357489.515625
-112.68,1683357489.53125
-129.71,1683357489.546875
-145.35,1683357489.5625
-156.13,1683357489.578125
-158.52,1683357489.59375
-150.16,1683357489.609375
-130.69,1683357489.625
-102.01,1683357489.640625
-67.61,1683357489.65625
-31.45,1683357489.671875
3.12,1683357489.6875
33.99,1683357489.703125
60.17,1683357489.71875
81.29,1683357489.734375
97.16,1683357489.75
107.59,1683357489.765625
112.55,1683357489.78125
112.56,1683357489.796875
108.78,1683357489.8125
102.88,1683357489.828125
96.52,1683357489.84375
90.92,1683357489.859375
86.53,1683357489.875
82.97,1683357489.890625
79.47,1683357489.90625
75.26,1683357489.921875
70.09,1683357489.9375
64.23,1683357489.953125
58.38,1683357489.96875
53.17,1683357489.984375
48.77,1683357490.0
44.71,1683357490.015625
39.99,1683357490.03125
33.57,1683357490.046875
24.86,1683357490.0625
14.01,1683357490.078125
1.95,1683357490.09375
-10.04,1683357490.109375
-20.88,1683357490.125
-30.08,1683357490.140625
-37.97,1683357490.15625
-45.52,1683357490.171875
-54.00,1683357490.1875
-64.60,1683357490.203125
-78.13,1683357490.21875
-94.61,1683357490.234375
-113.02,1683357490.25
-131.09,1683357490.265625
-145.50,1683357490.28125
-152.54,1683357490.296875
-149.22,1683357490.3125
-134.29,1683357490.328125
-108.79,1683357490.34375
-75.78,1683357490.359375
-39.38,1683357490.375
-3.50,1683357490.390625
29.10,1683357490.40625
57.12,1683357490.421875
80.27,1683357490.4375
98.72,1683357490.453125
112.52,1683357490.46875
121.53,1683357490.484375
125.68,1683357490.5
125.29,1683357490.515625
121.30,1683357490.53125
115.13,1683357490.546875
108.35,1683357490.5625
102.16,1683357490.578125
97.12,1683357490.59375
93.02,1683357490.609375
89.17,1683357490.625
84.74,1683357490.640625
79.27,1683357490.65625
72.80,1683357490.671875
65.83,1683357490.6875
58.97,1683357490.703125
52.51,1683357490.71875
46.21,1683357490.734375
39.38,1683357490.75
31.30,1683357490.765625
21.62,1683357490.78125
10.61,1683357490.796875
-0.94,1683357490.8125
-12.17,1683357490.828125
-22.52,1683357490.84375
-31.95,1683357490.859375
-40.88,1683357490.875
-49.89,1683357490.890625
-59.46,1683357490.90625
-69.94,1683357490.921875
-81.67,1683357490.9375
-95.04,1683357490.953125
-110.32,1683357490.96875
-127.20,1683357490.984375
-144.17,1683357491.0
-158.45,1683357491.015625
-166.38,1683357491.03125
-164.63,1683357491.046875
-151.40,1683357491.0625
-127.25,1683357491.078125
-95.00,1683357491.09375
-58.83,1683357491.109375
-22.85,1683357491.125
9.88,1683357491.140625
37.81,1683357491.15625
60.49,1683357491.171875
77.93,1683357491.1875
90.01,1683357491.203125
96.56,1683357491.21875
97.64,1683357491.234375
94.05,1683357491.25
87.42,1683357491.265625
79.84,1683357491.28125
73.26,1683357491.296875
68.75,1683357491.3125
66.33,1683357491.328125
65.08,1683357491.34375
63.77,1683357491.359375
61.41,1683357491.375
57.66,1683357491.390625
52.91,1683357491.40625
47.89,1683357491.421875
43.26,1683357491.4375
39.20,1683357491.453125
35.29,1683357491.46875
30.72,1683357491.484375
24.67,1683357491.5
16.71,1683357491.515625
6.94,1683357491.53125
-3.99,1683357491.546875
-15.19,1683357491.5625
-25.85,1683357491.578125
-35.54,1683357491.59375
-44.29,1683357491.609375
-52.54,1683357491.625
-60.94,1683357491.640625
-70.26,1683357491.65625
-81.20,1683357491.671875
-94.20,1683357491.6875
-109.13,1683357491.703125
-124.91,1683357491.71875
-139.35,1683357491.734375
-149.41,1683357491.75
-151.87,1683357491.765625
-144.43,1683357491.78125
-126.54,1683357491.796875
-99.73,1683357491.8125
-67.23,1683357491.828125
-32.91,1683357491.84375
-0.26,1683357491.859375
28.37,1683357491.875
51.84,1683357491.890625
69.83,1683357491.90625
82.33,1683357491.921875
89.30,1683357491.9375
90.92,1683357491.953125
87.78,1683357491.96875
81.24,1683357491.984375
73.25,1683357492.0
65.86,1683357492.015625
60.58,1683357492.03125
57.87,1683357492.046875
57.08,1683357492.0625
56.80,1683357492.078125
55.61,1683357492.09375
52.66,1683357492.109375
48.00,1683357492.125
42.40,1683357492.140625
36.80,1683357492.15625
31.78,1683357492.171875
27.18,1683357492.1875
22.28,1683357492.203125
16.08,1683357492.21875
7.89,1683357492.234375
-2.31,1683357492.25
-13.85,1683357492.265625
-25.63,1683357492.28125
-36.63,1683357492.296875
-46.31,1683357492.3125
-54.84,1683357492.328125
-62.91,1683357492.34375
-71.49,1683357492.359375
-81.54,1683357492.375
-93.75,1683357492.390625
-108.44,1683357492.40625
-125.30,1683357492.421875
-143.06,1683357492.4375
-159.27,1683357492.453125
-170.51,1683357492.46875
-173.12,1683357492.484375
-164.42,1683357492.5
-143.77,1683357492.515625
-113.08,1683357492.53125
-76.26,1683357492.546875
-37.96,1683357492.5625
-2.16,1683357492.578125
28.73,1683357492.59375
53.90,1683357492.609375
73.57,1683357492.625
88.15,1683357492.640625
97.85,1683357492.65625
102.74,1683357492.671875
103.11,1683357492.6875
99.86,1683357492.703125
94.43,1683357492.71875
88.46,1683357492.734375
83.32,1683357492.75
79.75,1683357492.765625
77.72,1683357492.78125
76.61,1683357492.796875
75.54,1683357492.8125
73.71,1683357492.828125
70.63,1683357492.84375
66.24,1683357492.859375
60.89,1683357492.875
55.13,1683357492.890625
49.49,1683357492.90625
44.15,1683357492.921875
38.88,1683357492.9375
33.07,1683357492.953125
25.97,1683357492.96875
17.11,1683357492.984375
6.58,1683357493.0
-4.96,1683357493.015625
-16.55,1683357493.03125
-27.36,1683357493.046875
-37.03,1683357493.0625
-45.76,1683357493.078125
-54.13,1683357493.09375
-62.84,1683357493.109375
-72.59,1683357493.125
-83.97,1683357493.140625
-97.36,1683357493.15625
-112.56,1683357493.171875
-128.34,1683357493.1875
-142.12,1683357493.203125
-150.25,1683357493.21875
-149.03,1683357493.234375
-136.09,1683357493.25
-111.51,1683357493.265625
-78.01,1683357493.28125
-40.14,1683357493.296875
-2.68,1683357493.3125
30.80,1683357493.328125
58.62,1683357493.34375
80.71,1683357493.359375
97.73,1683357493.375
110.20,1683357493.390625
118.15,1683357493.40625
121.40,1683357493.421875
120.09,1683357493.4375
115.11,1683357493.453125
108.08,1683357493.46875
100.84,1683357493.484375
94.82,1683357493.5
90.60,1683357493.515625
87.78,1683357493.53125
85.33,1683357493.546875
82.15,1683357493.5625
77.50,1683357493.578125
71.32,1683357493.59375
64.14,1683357493.609375
56.75,1683357493.625
49.83,1683357493.640625
43.66,1683357493.65625
37.98,1683357493.671875
32.15,1683357493.6875
25.43,1683357493.703125
17.31,1683357493.71875
7.71,1683357493.734375
-3.00,1683357493.75
-14.16,1683357493.765625
-25.05,1683357493.78125
-35.19,1683357493.796875
-44.43,1683357493.8125
-53.03,1683357493.828125
-61.55,1683357493.84375
-70.72,1683357493.859375
-81.35,1683357493.875
-94.15,1683357493.890625
-109.55,1683357493.90625
-127.17,1683357493.921875
-145.56,1683357493.9375
-161.96,1683357493.953125
-172.72,1683357493.96875
-174.24,1683357493.984375
-164.20,1683357494.0
-142.47,1683357494.015625
-111.31,1683357494.03125
-74.70,1683357494.046875
-37.04,1683357494.0625
-1.97,1683357494.078125
28.29,1683357494.09375
52.90,1683357494.109375
71.80,1683357494.125
85.08,1683357494.140625
92.79,1683357494.15625
95.15,1683357494.171875
92.93,1683357494.1875
87.59,1683357494.203125
81.08,1683357494.21875
75.21,1683357494.234375
71.12,1683357494.25
68.91,1683357494.265625
67.83,1683357494.28125
66.82,1683357494.296875
65.00,1683357494.3125
62.13,1683357494.328125
58.56,1683357494.34375
54.89,1683357494.359375
51.59,1683357494.375
48.52,1683357494.390625
45.04,1683357494.40625
40.19,1683357494.421875
33.22,1683357494.4375
23.92,1683357494.453125
12.84,1683357494.46875
1.06,1683357494.484375
-10.24,1683357494.5
-20.28,1683357494.515625
-29.00,1683357494.53125
-37.07,1683357494.546875
-45.62,1683357494.5625
-55.81,1683357494.578125
-68.48,1683357494.59375
-83.78,1683357494.609375
-100.90,1683357494.625
-117.92,1683357494.640625
-132.00,1683357494.65625
-139.81,1683357494.671875
-138.48,1683357494.6875
-126.51,1683357494.703125
-104.35,1683357494.71875
-74.46,1683357494.734375
-40.48,1683357494.75
-6.23,1683357494.765625
25.26,1683357494.78125
52.17,1683357494.796875
73.64,1683357494.8125
89.30,1683357494.828125
98.93,1683357494.84375
102.48,1683357494.859375
100.43,1683357494.875
94.08,1683357494.890625
85.46,1683357494.90625
76.88,1683357494.921875
70.12,1683357494.9375
65.87,1683357494.953125
63.64,1683357494.96875
62.12,1683357494.984375
59.97,1683357495.0
56.38,1683357495.015625
51.44,1683357495.03125
45.81,1683357495.046875
40.25,1683357495.0625
35.08,1683357495.078125
30.01,1683357495.09375
24.20,1683357495.109375
16.85,1683357495.125
7.58,1683357495.140625
-3.34,1683357495.15625
-15.07,1683357495.171875
-26.58,1683357495.1875
-37.10,1683357495.203125
-46.38,1683357495.21875
-54.83,1683357495.234375
-63.33,1683357495.25
-73.03,1683357495.265625
-85.05,1683357495.28125
-100.01,1683357495.296875
-117.68,1683357495.3125
-136.59,1683357495.328125
-154.02,1683357495.34375
-166.37,1683357495.359375
-170.09,1683357495.375
-162.70,1683357495.390625
-143.72,1683357495.40625
-114.87,1683357495.421875
-79.60,1683357495.4375
-42.10,1683357495.453125
-6.11,1683357495.46875
25.76,1683357495.484375
52.19,1683357495.5
72.79,1683357495.515625
87.54,1683357495.53125
96.51,1683357495.546875
99.91,1683357495.5625
98.38,1683357495.578125
93.18,1683357495.59375
86.12,1683357495.609375
79.04,1683357495.625
73.28,1683357495.640625
69.22,1683357495.65625
66.29,1683357495.671875
63.42,1683357495.6875
59.67,1683357495.703125
54.69,1683357495.71875
48.83,1683357495.734375
42.69,1683357495.75
36.67,1683357495.765625
30.61,1683357495.78125
23.85,1683357495.796875
15.62,1683357495.8125
5.53,1683357495.828125
-6.17,1683357495.84375
-18.68,1683357495.859375
-31.02,1683357495.875
-42.49,1683357495.890625
-52.98,1683357495.90625
-62.94,1683357495.921875
-73.15,1683357495.9375
-84.31,1683357495.953125
-96.81,1683357495.96875
-110.42,1683357495.984375
-124.14,1683357496.0
-136.20,1683357496.015625
-144.24,1683357496.03125
-145.77,1683357496.046875
-138.78,1683357496.0625
-122.43,1683357496.078125
-97.49,1683357496.09375
-66.14,1683357496.109375
-31.50,1683357496.125
3.20,1683357496.140625
35.43,1683357496.15625
63.59,1683357496.171875
86.97,1683357496.1875
105.28,1683357496.203125
118.33,1683357496.21875
125.87,1683357496.234375
127.91,1683357496.25
125.06,1683357496.265625
118.73,1683357496.28125
110.94,1683357496.296875
103.73,1683357496.3125
98.42,1683357496.328125
95.25,1683357496.34375
93.40,1683357496.359375
91.55,1683357496.375
88.66,1683357496.390625
84.36,1683357496.40625
79.04,1683357496.421875
73.39,1683357496.4375
67.86,1683357496.453125
62.33,1683357496.46875
56.17,1683357496.484375
48.62,1683357496.5
39.23,1683357496.515625
28.13,1683357496.53125
15.99,1683357496.546875
3.67,1683357496.5625
-8.02,1683357496.578125
-18.76,1683357496.59375
-28.66,1683357496.609375
-38.26,1683357496.625
-48.37,1683357496.640625
-59.88,1683357496.65625
-73.48,1683357496.671875
-89.24,1683357496.6875
-106.24,1683357496.703125
-122.26,1683357496.71875
-134.16,1683357496.734375
-138.59,1683357496.75
-133.10,1683357496.765625
-117.07,1683357496.78125
-92.01,1683357496.796875
-61.15,1683357496.8125
-28.32,1683357496.828125
3.09,1683357496.84375
30.86,1683357496.859375
53.91,1683357496.875
71.90,1683357496.890625
84.65,1683357496.90625
92.07,1683357496.921875
94.27,1683357496.9375
91.94,1683357496.953125
86.46,1683357496.96875
79.70,1683357496.984375
73.43,1683357497.0
68.75,1683357497.015625
65.82,1683357497.03125
64.00,1683357497.046875
62.29,1683357497.0625
59.97,1683357497.078125
56.85,1683357497.09375
53.24,1683357497.109375
49.56,1683357497.125
46.00,1683357497.140625
42.30,1683357497.15625
37.82,1683357497.171875
31.90,1683357497.1875
24.23,1683357497.203125
15.00,1683357497.21875
4.86,1683357497.234375
-5.34,1683357497.25
-14.92,1683357497.265625
-23.56,1683357497.28125
-31.45,1683357497.296875
-39.18,1683357497.3125
-47.51,1683357497.328125
-57.27,1683357497.34375
-69.08,1683357497.359375
-83.16,1683357497.375
-98.96,1683357497.390625
-114.90,1683357497.40625
-128.32,1683357497.421875
-136.00,1683357497.4375
-134.99,1683357497.453125
-123.64,1683357497.46875
-102.32,1683357497.484375
-73.41,1683357497.5
-40.56,1683357497.515625
-7.54,1683357497.53125
22.73,1683357497.546875
48.59,1683357497.5625
69.39,1683357497.578125
84.96,1683357497.59375
95.20,1683357497.609375
100.05,1683357497.625
99.87,1683357497.640625
95.65,1683357497.65625
89.07,1683357497.671875
81.99,1683357497.6875
75.90,1683357497.703125
71.44,1683357497.71875
68.37,1683357497.734375
65.86,1683357497.75
63.06,1683357497.765625
59.46,1683357497.78125
55.09,1683357497.796875
50.36,1683357497.8125
45.74,1683357497.828125
41.41,1683357497.84375
37.06,1683357497.859375
32.04,1683357497.875
25.63,1683357497.890625
17.45,1683357497.90625
7.68,1683357497.921875
-2.87,1683357497.9375
-13.13,1683357497.953125
-22.21,1683357497.96875
-29.79,1683357497.984375
-36.37,1683357498.0
-43.01,1683357498.015625
-51.01,1683357498.03125
-61.47,1683357498.046875
-74.86,1683357498.0625
-90.83,1683357498.078125
-107.98,1683357498.09375
-123.97,1683357498.109375
-135.73,1683357498.125
-140.15,1683357498.140625
-134.94,1683357498.15625
-119.35,1683357498.171875
-94.60,1683357498.1875
-63.54,1683357498.203125
-29.88,1683357498.21875
2.82,1683357498.234375
31.87,1683357498.25
55.72,1683357498.265625
73.70,1683357498.28125
85.67,1683357498.296875
91.83,1683357498.3125
92.66,1683357498.328125
89.15,1683357498.34375
82.74,1683357498.359375
75.12,1683357498.375
67.81,1683357498.390625
61.78,1683357498.40625
57.25,1683357498.421875
53.86,1683357498.4375
50.99,1683357498.453125
48.15,1683357498.46875
45.15,1683357498.484375
42.05,1683357498.5
38.97,1683357498.515625
35.74,1683357498.53125
31.96,1683357498.546875
27.04,1683357498.5625
20.48,1683357498.578125
12.18,1683357498.59375
2.52,1683357498.609375
-7.73,1683357498.625
-17.73,1683357498.640625
-26.88,1683357498.65625
-35.05,1683357498.671875
-42.62,1683357498.6875
-50.41,1683357498.703125
-59.46,1683357498.71875
-70.69,1683357498.734375
-84.43,1683357498.75
-99.97,1683357498.765625
-115.31,1683357498.78125
-127.37,1683357498.796875
-132.74,1683357498.8125
-128.78,1683357498.828125
-114.52,1683357498.84375
-91.10,1683357498.859375
-61.36,1683357498.875
-28.98,1683357498.890625
2.59,1683357498.90625
30.72,1683357498.921875
53.84,1683357498.9375
71.18,1683357498.953125
82.46,1683357498.96875
87.86,1683357498.984375
88.00,1683357499.0
83.99,1683357499.015625
77.39,1683357499.03125
69.82,1683357499.046875
62.61,1683357499.0625
56.49,1683357499.078125
51.64,1683357499.09375
47.80,1683357499.109375
44.58,1683357499.125
41.63,1683357499.140625
38.72,1683357499.15625
35.71,1683357499.171875
32.38,1683357499.1875
28.36,1683357499.203125
23.25,1683357499.21875
16.66,1683357499.234375
8.49,1683357499.25
-1.03,1683357499.265625
-11.31,1683357499.28125
-21.61,1683357499.296875
-31.35,1683357499.3125
-40.28,1683357499.328125
-48.61,1683357499.34375
-57.03,1683357499.359375
-66.50,1683357499.375
-78.07,1683357499.390625
-92.39,1683357499.40625
-109.23,1683357499.421875
-127.04,1683357499.4375
-142.91,1683357499.453125
-153.14,1683357499.46875
-154.26,1683357499.484375
-144.21,1683357499.5
-123.19,1683357499.515625
-93.58,1683357499.53125
-59.18,1683357499.546875
-23.96,1683357499.5625
8.96,1683357499.578125
37.76,1683357499.59375
61.71,1683357499.609375
80.56,1683357499.625
94.08,1683357499.640625
101.99,1683357499.65625
104.27,1683357499.671875
101.57,1683357499.6875
95.28,1683357499.703125
87.31,1683357499.71875
79.48,1683357499.734375
73.00,1683357499.75
68.15,1683357499.765625
64.49,1683357499.78125
61.16,1683357499.796875
57.48,1683357499.8125
53.21,1683357499.828125
48.54,1683357499.84375
43.84,1683357499.859375
39.32,1683357499.875
34.80,1683357499.890625
29.76,1683357499.90625
23.54,1683357499.921875
15.66,1683357499.9375
6.14,1683357499.953125
-4.50,1683357499.96875
-15.44,1683357499.984375
-25.78,1683357500.0
-35.02,1683357500.015625
-43.23,1683357500.03125
-51.05,1683357500.046875
-59.49,1683357500.0625
-69.60,1683357500.078125
-82.16,1683357500.09375
-97.39,1683357500.109375
-114.62,1683357500.125
-132.18,1683357500.140625
-147.43,1683357500.15625
-157.06,1683357500.171875
-157.98,1683357500.1875
-148.20,1683357500.203125
-127.60,1683357500.21875
-98.16,1683357500.234375
-63.40,1683357500.25
-27.35,1683357500.265625
6.57,1683357500.28125
36.20,1683357500.296875
60.71,1683357500.3125
80.03,1683357500.328125
94.36,1683357500.34375
103.73,1683357500.359375
108.09,1683357500.375
107.69,1683357500.390625
103.40,1683357500.40625
96.72,1683357500.421875
89.46,1683357500.4375
83.22,1683357500.453125
78.76,1683357500.46875
75.88,1683357500.484375
73.65,1683357500.5
70.89,1683357500.515625
66.83,1683357500.53125
61.44,1683357500.546875
55.32,1683357500.5625
49.35,1683357500.578125
44.21,1683357500.59375
39.90,1683357500.609375
35.83,1683357500.625
31.00,1683357500.640625
24.50,1683357500.65625
15.93,1683357500.671875
5.58,1683357500.6875
-5.69,1683357500.703125
-16.84,1683357500.71875
-27.07,1683357500.734375
-36.08,1683357500.75
-44.12,1683357500.765625
-51.83,1683357500.78125
-59.99,1683357500.796875
-69.42,1683357500.8125
-80.89,1683357500.828125
-94.90,1683357500.84375
-111.35,1683357500.859375
-128.98,1683357500.875
-145.17,1683357500.890625
-156.24,1683357500.90625
-158.47,1683357500.921875
-149.42,1683357500.9375
-128.90,1683357500.953125
-99.22,1683357500.96875
-64.37,1683357500.984375
-28.67,1683357501.0
4.52,1683357501.015625
33.35,1683357501.03125
57.28,1683357501.046875
76.34,1683357501.0625
90.51,1683357501.078125
99.49,1683357501.09375
103.01,1683357501.109375
101.35,1683357501.125
95.56,1683357501.140625
87.38,1683357501.15625
78.73,1683357501.171875
71.11,1683357501.1875
65.23,1683357501.203125
60.99,1683357501.21875
57.72,1683357501.234375
54.62,1683357501.25
51.10,1683357501.265625
46.97,1683357501.28125
42.34,1683357501.296875
37.52,1683357501.3125
32.84,1683357501.328125
28.53,1683357501.34375
24.60,1683357501.359375
20.89,1683357501.375
17.04,1683357501.390625
12.67,1683357501.40625
7.43,1683357501.421875
1.12,1683357501.4375
-6.17,1683357501.453125
-14.07,1683357501.46875
-22.05,1683357501.484375
-29.55,1683357501.5
-36.15,1683357501.515625
-41.79,1683357501.53125
-46.77,1683357501.546875
-51.75,1683357501.5625
-57.59,1683357501.578125
-65.18,1683357501.59375
-75.01,1683357501.609375
-86.84,1683357501.625
-99.31,1683357501.640625
-110.00,1683357501.65625
-115.80,1683357501.671875
-113.75,1683357501.6875
-102.14,1683357501.703125
-81.13,1683357501.71875
-52.99,1683357501.734375
-21.45,1683357501.75
9.41,1683357501.765625
36.26,1683357501.78125
57.28,1683357501.796875
72.15,1683357501.8125
81.61,1683357501.828125
86.80,1683357501.84375
88.83,1683357501.859375
88.65,1683357501.875
87.05,1683357501.890625
84.86,1683357501.90625
82.87,1683357501.921875
81.73,1683357501.9375
81.80,1683357501.953125
83.07,1683357501.96875
85.17,1683357501.984375
87.50,1683357502.0
89.41,1683357502.015625
90.36,1683357502.03125
89.98,1683357502.046875
88.21,1683357502.0625
85.26,1683357502.078125
81.47,1683357502.09375
77.26,1683357502.109375
72.86,1683357502.125
68.18,1683357502.140625
62.79,1683357502.15625
56.04,1683357502.171875
47.35,1683357502.1875
36.48,1683357502.203125
23.67,1683357502.21875
9.57,1683357502.234375
-4.98,1683357502.25
-19.22,1683357502.265625
-32.70,1683357502.28125
-45.38,1683357502.296875
-57.49,1683357502.3125
-69.56,1683357502.328125
-82.22,1683357502.34375
-96.12,1683357502.359375
-111.62,1683357502.375
-128.35,1683357502.390625
-144.87,1683357502.40625
-158.61,1683357502.421875
-166.30,1683357502.4375
-164.98,1683357502.453125
-153.10,1683357502.46875
-131.15,1683357502.484375
-101.74,1683357502.5
-68.65,1683357502.515625
-35.74,1683357502.53125
-5.89,1683357502.546875
19.33,1683357502.5625
39.46,1683357502.578125
54.51,1683357502.59375
64.58,1683357502.609375
69.73,1683357502.625
70.29,1683357502.640625
67.13,1683357502.65625
61.71,1683357502.671875
55.76,1683357502.6875
50.73,1683357502.703125
47.33,1683357502.71875
45.36,1683357502.734375
43.98,1683357502.75
42.21,1683357502.765625
39.49,1683357502.78125
35.86,1683357502.796875
31.95,1683357502.8125
28.48,1683357502.828125
25.94,1683357502.84375
24.20,1683357502.859375
22.63,1683357502.875
20.36,1683357502.890625
16.65,1683357502.90625
11.20,1683357502.921875
4.26,1683357502.9375
-3.52,1683357502.953125
-11.35,1683357502.96875
-18.59,1683357502.984375
-24.96,1683357503.0
-30.58,1683357503.015625
-35.98,1683357503.03125
-41.95,1683357503.046875
-49.40,1683357503.0625
-59.04,1683357503.078125
-71.21,1683357503.09375
-85.44,1683357503.109375
-100.22,1683357503.125
-112.99,1683357503.140625
-120.63,1683357503.15625
-120.15,1683357503.171875
-109.73,1683357503.1875
-89.31,1683357503.203125
-60.71,1683357503.21875
-27.13,1683357503.234375
7.80,1683357503.25
40.90,1683357503.265625
69.95,1683357503.28125
93.80,1683357503.296875
111.98,1683357503.3125
124.43,1683357503.328125
131.24,1683357503.34375
132.70,1683357503.359375
129.36,1683357503.375
122.21,1683357503.390625
112.55,1683357503.40625
101.81,1683357503.421875
91.32,1683357503.4375
82.05,1683357503.453125
74.46,1683357503.46875
68.52,1683357503.484375
63.80,1683357503.5
59.69,1683357503.515625
55.63,1683357503.53125
51.31,1683357503.546875
46.65,1683357503.5625
41.75,1683357503.578125
36.59,1683357503.59375
30.96,1683357503.609375
24.31,1683357503.625
16.04,1683357503.640625
5.69,1683357503.65625
-6.68,1683357503.671875
-20.45,1683357503.6875
-34.60,1683357503.703125
-48.00,1683357503.71875
-59.87,1683357503.734375
-70.01,1683357503.75
-78.82,1683357503.765625
-87.05,1683357503.78125
-95.54,1683357503.796875
-105.08,1683357503.8125
-116.23,1683357503.828125
-129.24,1683357503.84375
-143.71,1683357503.859375
-158.29,1683357503.875
-170.49,1683357503.890625
-177.03,1683357503.90625
-174.71,1683357503.921875
-161.50,1683357503.9375
-137.46,1683357503.953125
-104.93,1683357503.96875
-67.85,1683357503.984375
-30.53,1683357504.0
3.45,1683357504.015625
32.04,1683357504.03125
54.57,1683357504.046875
71.31,1683357504.0625
82.81,1683357504.078125
89.58,1683357504.09375
92.12,1683357504.109375
91.09,1683357504.125
87.52,1683357504.140625
82.66,1683357504.15625
77.76,1683357504.171875
73.71,1683357504.1875
70.89,1683357504.203125
69.06,1683357504.21875
67.61,1683357504.234375
65.81,1683357504.25
63.17,1683357504.265625
59.52,1683357504.28125
55.18,1683357504.296875
50.63,1683357504.3125
46.34,1683357504.328125
42.48,1683357504.34375
38.79,1683357504.359375
34.64,1683357504.375
29.30,1683357504.390625
22.24,1683357504.40625
13.43,1683357504.421875
3.38,1683357504.4375
-7.09,1683357504.453125
-17.07,1683357504.46875
-25.93,1683357504.484375
-33.50,1683357504.5
-40.08,1683357504.515625
-46.27,1683357504.53125
-52.86,1683357504.546875
-60.67,1683357504.5625
-70.45,1683357504.578125
-82.68,1683357504.59375
-97.26,1683357504.609375
-113.05,1683357504.625
-127.69,1683357504.640625
-137.87,1683357504.65625
-140.13,1683357504.671875
-132.07,1683357504.6875
-113.29,1683357504.703125
-85.69,1683357504.71875
-52.94,1683357504.734375
-19.30,1683357504.75
11.68,1683357504.765625
37.84,1683357504.78125
58.45,1683357504.796875
73.65,1683357504.8125
83.80,1683357504.828125
89.09,1683357504.84375
89.75,1683357504.859375
86.39,1683357504.875
80.25,1683357504.890625
73.06,1683357504.90625
66.52,1683357504.921875
61.72,1683357504.9375
58.79,1683357504.953125
56.98,1683357504.96875
55.17,1683357504.984375
52.47,1683357505.0
48.65,1683357505.015625
44.11,1683357505.03125
39.65,1683357505.046875
35.93,1683357505.0625
33.11,1683357505.078125
30.65,1683357505.09375
27.63,1683357505.109375
23.07,1683357505.125
16.40,1683357505.140625
7.70,1683357505.15625
-2.28,1683357505.171875
-12.41,1683357505.1875
-21.64,1683357505.203125
-29.43,1683357505.21875
-35.97,1683357505.234375
-42.14,1683357505.25
-49.21,1683357505.265625
-58.42,1683357505.28125
-70.45,1683357505.296875
-85.02,1683357505.3125
-100.66,1683357505.328125
-114.82,1683357505.34375
-124.26,1683357505.359375
-126.02,1683357505.375
-118.21,1683357505.390625
-100.79,1683357505.40625
-75.61,1683357505.421875
-45.86,1683357505.4375
-15.15,1683357505.453125
13.54,1683357505.46875
38.35,1683357505.484375
58.50,1683357505.5
73.84,1683357505.515625
84.30,1683357505.53125
89.72,1683357505.546875
90.06,1683357505.5625
85.83,1683357505.578125
78.31,1683357505.59375
69.46,1683357505.609375
61.31,1683357505.625
55.32,1683357505.640625
51.84,1683357505.65625
50.13,1683357505.671875
48.82,1683357505.6875
46.67,1683357505.703125
43.08,1683357505.71875
38.28,1683357505.734375
33.07,1683357505.75
28.17,1683357505.765625
23.87,1683357505.78125
19.73,1683357505.796875
14.90,1683357505.8125
8.53,1683357505.828125
0.21,1683357505.84375
-9.79,1683357505.859375
-20.58,1683357505.875
-31.08,1683357505.890625
-40.45,1683357505.90625
-48.34,1683357505.921875
-55.11,1683357505.9375
-61.62,1683357505.953125
-69.00,1683357505.96875
-78.36,1683357505.984375
-90.45,1683357506.0
-105.32,1683357506.015625
-121.96,1683357506.03125
-138.19,1683357506.046875
-150.84,1683357506.0625
-156.46,1683357506.078125
-152.26,1683357506.09375
-137.10,1683357506.109375
-111.98,1683357506.125
-79.81,1683357506.140625
-44.57,1683357506.15625
-10.10,1683357506.171875
20.81,1683357506.1875
46.74,1683357506.203125
67.49,1683357506.21875
83.38,1683357506.234375
94.75,1683357506.25
101.72,1683357506.265625
104.38,1683357506.28125
103.10,1683357506.296875
98.82,1683357506.3125
92.95,1683357506.328125
86.96,1683357506.34375
81.96,1683357506.359375
78.32,1683357506.375
75.68,1683357506.390625
73.28,1683357506.40625
70.38,1683357506.421875
66.62,1683357506.4375
62.14,1683357506.453125
57.38,1683357506.46875
52.79,1683357506.484375
48.51,1683357506.5
44.26,1683357506.515625
39.43,1683357506.53125
33.31,1683357506.546875
25.43,1683357506.5625
15.79,1683357506.578125
4.90,1683357506.59375
-6.36,1683357506.609375
-17.06,1683357506.625
-26.59,1683357506.640625
-34.92,1683357506.65625
-42.54,1683357506.671875
-50.36,1683357506.6875
-59.35,1683357506.703125
-70.34,1683357506.71875
-83.82,1683357506.734375
-99.66,1683357506.75
-116.84,1683357506.765625
-133.26,1683357506.78125
-145.85,1683357506.796875
-151.19,1683357506.8125
-146.48,1683357506.828125
-130.61,1683357506.84375
-104.70,1683357506.859375
-71.87,1683357506.875
-36.33,1683357506.890625
-2.08,1683357506.90625
28.04,1683357506.921875
52.74,1683357506.9375
71.98,1683357506.953125
86.19,1683357506.96875
95.84,1683357506.984375
101.20,1683357507.0
102.48,1683357507.015625
100.18,1683357507.03125
95.30,1683357507.046875
89.17,1683357507.0625
83.14,1683357507.078125
78.21,1683357507.09375
74.73,1683357507.109375
72.37,1683357507.125
70.41,1683357507.140625
68.05,1683357507.15625
64.79,1683357507.171875
60.56,1683357507.1875
55.65,1683357507.203125
50.53,1683357507.21875
45.53,1683357507.234375
40.73,1683357507.25
35.80,1683357507.265625
30.13,1683357507.28125
23.11,1683357507.296875
14.39,1683357507.3125
4.17,1683357507.328125
-6.84,1683357507.34375
-17.67,1683357507.359375
-27.43,1683357507.375
-35.74,1683357507.390625
-42.77,1683357507.40625
-49.19,1683357507.421875
-55.89,1683357507.4375
-63.68,1683357507.453125
-73.26,1683357507.46875
-85.00,1683357507.484375
-98.82,1683357507.5
-113.78,1683357507.515625
-127.88,1683357507.53125
-138.12,1683357507.546875
-141.15,1683357507.5625
-134.36,1683357507.578125
-116.85,1683357507.59375
-89.97,1683357507.609375
-56.96,1683357507.625
-21.98,1683357507.640625
11.07,1683357507.65625
39.45,1683357507.671875
61.90,1683357507.6875
78.33,1683357507.703125
89.28,1683357507.71875
95.39,1683357507.734375
97.28,1683357507.75
95.51,1683357507.765625
90.85,1683357507.78125
84.38,1683357507.796875
77.45,1683357507.8125
71.36,1683357507.828125
66.96,1683357507.84375
64.41,1683357507.859375
63.12,1683357507.875
62.01,1683357507.890625
60.12,1683357507.90625
56.91,1683357507.921875
52.52,1683357507.9375
47.55,1683357507.953125
42.72,1683357507.96875
38.37,1683357507.984375
34.37,1683357508.0
30.08,1683357508.015625
24.71,1683357508.03125
17.67,1683357508.046875
8.83,1683357508.0625
-1.37,1683357508.078125
-12.15,1683357508.09375
-22.60,1683357508.109375
-32.07,1683357508.125
-40.32,1683357508.140625
-47.60,1683357508.15625
-54.50,1683357508.171875
-61.72,1683357508.1875
-69.97,1683357508.203125
-79.81,1683357508.21875
-91.58,1683357508.234375
-105.02,1683357508.25
-119.04,1683357508.265625
-131.43,1683357508.28125
-139.14,1683357508.296875
-139.05,1683357508.3125
-129.05,1683357508.328125
-108.95,1683357508.34375
-80.73,1683357508.359375
-48.00,1683357508.375
-14.85,1683357508.390625
15.33,1683357508.40625
40.51,1683357508.421875
59.96,1683357508.4375
73.73,1683357508.453125
82.14,1683357508.46875
85.47,1683357508.484375
84.14,1683357508.5
79.00,1683357508.515625
71.45,1683357508.53125
63.22,1683357508.546875
55.91,1683357508.5625
50.50,1683357508.578125
47.12,1683357508.59375
45.18,1683357508.609375
43.73,1683357508.625
42.00,1683357508.640625
39.62,1683357508.65625
36.73,1683357508.671875
33.74,1683357508.6875
30.94,1683357508.703125
28.23,1683357508.71875
25.09,1683357508.734375
20.77,1683357508.75
14.68,1683357508.765625
6.68,1683357508.78125
-2.74,1683357508.796875
-12.59,1683357508.8125
-21.75,1683357508.828125
-29.44,1683357508.84375
-35.52,1683357508.859375
-40.57,1683357508.875
-45.76,1683357508.890625
-52.50,1683357508.90625
-61.94,1683357508.921875
-74.54,1683357508.9375
-89.65,1683357508.953125
-105.37,1683357508.96875
-118.69,1683357508.984375
-126.11,1683357509.0
-124.63,1683357509.015625
-112.69,1683357509.03125
-90.82,1683357509.046875
-61.57,1683357509.0625
-28.72,1683357509.078125
3.79,1683357509.09375
32.93,1683357509.109375
56.98,1683357509.125
75.40,1683357509.140625
88.30,1683357509.15625
95.91,1683357509.171875
98.41,1683357509.1875
96.09,1683357509.203125
89.73,1683357509.21875
80.67,1683357509.234375
70.72,1683357509.25
61.54,1683357509.265625
54.16,1683357509.28125
48.70,1683357509.296875
44.46,1683357509.3125
40.33,1683357509.328125
35.39,1683357509.34375
29.15,1683357509.359375
21.72,1683357509.375
13.48,1683357509.390625
4.85,1683357509.40625
-4.08,1683357509.421875
-13.52,1683357509.4375
-23.83,1683357509.453125
-35.19,1683357509.46875
-47.40,1683357509.484375
-59.77,1683357509.5
-71.32,1683357509.515625
-81.17,1683357509.53125
-88.89,1683357509.546875
-94.79,1683357509.5625
-99.82,1683357509.578125
-105.32,1683357509.59375
-112.65,1683357509.609375
-122.78,1683357509.625
-135.98,1683357509.640625
-151.55,1683357509.65625
-167.69,1683357509.671875
-181.52,1683357509.6875
-189.60,1683357509.703125
-188.72,1683357509.71875
-176.90,1683357509.734375
-154.13,1683357509.75
-122.59,1683357509.765625
-85.97,1683357509.78125
-48.46,1683357509.796875
-13.59,1683357509.8125
16.40,1683357509.828125
40.52,1683357509.84375
58.55,1683357509.859375
70.53,1683357509.875
76.53,1683357509.890625
76.80,1683357509.90625
72.14,1683357509.921875
64.11,1683357509.9375
54.84,1683357509.953125
46.57,1683357509.96875
40.99,1683357509.984375
38.85,1683357510.0
39.94,1683357510.015625
43.52,1683357510.03125
48.77,1683357510.046875
55.16,1683357510.0625
62.31,1683357510.078125
69.66,1683357510.09375
76.16,1683357510.109375
80.20,1683357510.125
80.10,1683357510.140625
74.80,1683357510.15625
64.40,1683357510.171875
50.25,1683357510.1875
34.60,1683357510.203125
19.73,1683357510.21875
7.30,1683357510.234375
-2.04,1683357510.25
-8.66,1683357510.265625
-13.60,1683357510.28125
-18.32,1683357510.296875
-24.36,1683357510.3125
-33.06,1683357510.328125
-45.07,1683357510.34375
-59.84,1683357510.359375
-75.39,1683357510.375
-88.55,1683357510.390625
-95.84,1683357510.40625
-94.61,1683357510.421875
-83.94,1683357510.4375
-64.89,1683357510.453125
-39.99,1683357510.46875
-12.26,1683357510.484375
15.65,1683357510.5
41.87,1683357510.515625
65.20,1683357510.53125
84.72,1683357510.546875
99.51,1683357510.5625
108.70,1683357510.578125
111.88,1683357510.59375
109.46,1683357510.609375
102.80,1683357510.625
93.96,1683357510.640625
85.10,1683357510.65625
77.79,1683357510.671875
72.67,1683357510.6875
69.39,1683357510.703125
67.05,1683357510.71875
64.67,1683357510.734375
61.73,1683357510.75
58.23,1683357510.765625
54.54,1683357510.78125
50.97,1683357510.796875
47.43,1683357510.8125
43.38,1683357510.828125
38.09,1683357510.84375
31.05,1683357510.859375
22.36,1683357510.875
12.74,1683357510.890625
3.30,1683357510.90625
-5.01,1683357510.921875
-11.73,1683357510.9375
-17.18,1683357510.953125
-22.28,1683357510.96875
-28.28,1683357510.984375
-36.33,1683357511.0
-47.21,1683357511.015625
-60.99,1683357511.03125
-76.89,1683357511.046875
-93.10,1683357511.0625
-106.94,1683357511.078125
-115.36,1683357511.09375
-115.68,1683357511.109375
-106.46,1683357511.125
-88.05,1683357511.140625
-62.54,1683357511.15625
-33.19,1683357511.171875
-3.45,1683357511.1875
23.81,1683357511.203125
46.81,1683357511.21875
64.70,1683357511.234375
77.29,1683357511.25
84.72,1683357511.265625
87.33,1683357511.28125
85.74,1683357511.296875
80.93,1683357511.3125
74.18,1683357511.328125
66.82,1683357511.34375
59.92,1683357511.359375
54.06,1683357511.375
49.36,1683357511.390625
45.67,1683357511.40625
42.84,1683357511.421875
40.83,1683357511.4375
39.62,1683357511.453125
39.04,1683357511.46875
38.54,1683357511.484375
37.24,1683357511.5
34.19,1683357511.515625
28.75,1683357511.53125
20.84,1683357511.546875
11.00,1683357511.5625
0.17,1683357511.578125
-10.67,1683357511.59375
-20.81,1683357511.609375
-30.01,1683357511.625
-38.55,1683357511.640625
-47.14,1683357511.65625
-56.84,1683357511.671875
-68.62,1683357511.6875
-83.00,1683357511.703125
-99.40,1683357511.71875
-115.87,1683357511.734375
-129.22,1683357511.75
-135.84,1683357511.765625
-132.82,1683357511.78125
-119.05,1683357511.796875
-95.61,1683357511.8125
-65.52,1683357511.828125
-32.65,1683357511.84375
-0.63,1683357511.859375
27.99,1683357511.875
51.93,1683357511.890625
70.87,1683357511.90625
84.93,1683357511.921875
94.29,1683357511.9375
99.17,1683357511.953125
99.94,1683357511.96875
97.34,1683357511.984375
92.43,1683357512.0
86.36,1683357512.015625
80.03,1683357512.03125
73.97,1683357512.046875
68.30,1683357512.0625
62.98,1683357512.078125
58.10,1683357512.09375
53.91,1683357512.109375
50.77,1683357512.125
48.82,1683357512.140625
47.76,1683357512.15625
46.76,1683357512.171875
44.76,1683357512.1875
40.76,1683357512.203125
34.28,1683357512.21875
25.43,1683357512.234375
14.84,1683357512.25
3.38,1683357512.265625
-8.19,1683357512.28125
-19.40,1683357512.296875
-30.26,1683357512.3125
-41.19,1683357512.328125
-53.00,1683357512.34375
-66.50,1683357512.359375
-82.08,1683357512.375
-99.07,1683357512.390625
-115.50,1683357512.40625
-128.24,1683357512.421875
-133.86,1683357512.4375
-129.76,1683357512.453125
-115.20,1683357512.46875
-91.65,1683357512.484375
-62.27,1683357512.5
-30.79,1683357512.515625
-0.39,1683357512.53125
27.01,1683357512.546875
50.64,1683357512.5625
70.35,1683357512.578125
85.98,1683357512.59375
97.14,1683357512.609375
103.44,1683357512.625
104.89,1683357512.640625
102.22,1683357512.65625
96.81,1683357512.671875
90.32,1683357512.6875
84.13,1683357512.703125
78.95,1683357512.71875
74.71,1683357512.734375
70.80,1683357512.75
66.57,1683357512.765625
61.70,1683357512.78125
56.38,1683357512.796875
51.19,1683357512.8125
46.65,1683357512.828125
42.83,1683357512.84375
39.22,1683357512.859375
34.83,1683357512.875
28.70,1683357512.890625
20.29,1683357512.90625
9.79,1683357512.921875
-1.96,1683357512.9375
-13.78,1683357512.953125
-24.60,1683357512.96875
-33.83,1683357512.984375
-41.61,1683357513.0
-48.73,1683357513.015625
-56.38,1683357513.03125
-65.79,1683357513.046875
-77.84,1683357513.0625
-92.65,1683357513.078125
-109.25,1683357513.09375
-125.59,1683357513.109375
-138.76,1683357513.125
-145.62,1683357513.140625
-143.65,1683357513.15625
-131.69,1683357513.171875
-110.36,1683357513.1875
-81.90,1683357513.203125
-49.55,1683357513.21875
-16.67,1683357513.234375
14.01,1683357513.25
40.79,1683357513.265625
62.83,1683357513.28125
79.83,1683357513.296875
91.68,1683357513.3125
98.40,1683357513.328125
100.26,1683357513.34375
98.01,1683357513.359375
92.94,1683357513.375
86.60,1683357513.390625
80.38,1683357513.40625
75.11,1683357513.421875
70.91,1683357513.4375
67.28,1683357513.453125
63.52,1683357513.46875
59.15,1683357513.484375
54.15,1683357513.5
48.95,1683357513.515625
44.14,1683357513.53125
40.12,1683357513.546875
36.74,1683357513.5625
33.27,1683357513.578125
28.71,1683357513.59375
22.17,1683357513.609375
13.36,1683357513.625
2.73,1683357513.640625
-8.66,1683357513.65625
-19.63,1683357513.671875
-29.34,1683357513.6875
-37.63,1683357513.703125
-45.07,1683357513.71875
-52.67,1683357513.734375
-61.54,1683357513.75
-72.50,1683357513.765625
-85.82,1683357513.78125
-100.99,1683357513.796875
-116.55,1683357513.8125
-130.14,1683357513.828125
-138.90,1683357513.84375
-140.09,1683357513.859375
-131.97,1683357513.875
-114.43,1683357513.890625
-89.07,1683357513.90625
-58.86,1683357513.921875
-27.15,1683357513.9375
3.13,1683357513.953125
29.99,1683357513.96875
52.42,1683357513.984375
70.08,1683357514.0
82.88,1683357514.015625
90.73,1683357514.03125
93.76,1683357514.046875
92.39,1683357514.0625
87.62,1683357514.078125
80.88,1683357514.09375
73.72,1683357514.109375
67.39,1683357514.125
62.48,1683357514.140625
58.87,1683357514.15625
55.92,1683357514.171875
52.89,1683357514.1875
49.37,1683357514.203125
45.42,1683357514.21875
41.43,1683357514.234375
37.82,1683357514.25
34.57,1683357514.265625
31.13,1683357514.28125
26.60,1683357514.296875
20.14,1683357514.3125
11.45,1683357514.328125
0.99,1683357514.34375
-10.22,1683357514.359375
-21.00,1683357514.375
-30.50,1683357514.390625
-38.51,1683357514.40625
-45.49,1683357514.421875
-52.34,1683357514.4375
-60.05,1683357514.453125
-69.50,1683357514.46875
-81.22,1683357514.484375
-95.06,1683357514.5
-109.97,1683357514.515625
-123.80,1683357514.53125
-133.61,1683357514.546875
-136.33,1683357514.5625
-129.76,1683357514.578125
-113.41,1683357514.59375
-88.78,1683357514.609375
-58.89,1683357514.625
-27.33,1683357514.640625
2.77,1683357514.65625
29.29,1683357514.671875
51.19,1683357514.6875
68.04,1683357514.703125
79.62,1683357514.71875
85.82,1683357514.734375
86.79,1683357514.75
83.24,1683357514.765625
76.62,1683357514.78125
68.78,1683357514.796875
61.49,1683357514.8125
55.84,1683357514.828125
52.06,1683357514.84375
49.57,1683357514.859375
47.48,1683357514.875
45.08,1683357514.890625
42.19,1683357514.90625
39.07,1683357514.921875
36.18,1683357514.9375
33.71,1683357514.953125
31.34,1683357514.96875
28.33,1683357514.984375
23.77,1683357515.0
17.08,1683357515.015625
8.24,1683357515.03125
-2.12,1683357515.046875
-13.02,1683357515.0625
-23.51,1683357515.078125
-32.97,1683357515.09375
-41.33,1683357515.109375
-49.09,1683357515.125
-57.10,1683357515.140625
-66.37,1683357515.15625
-77.71,1683357515.171875
-91.28,1683357515.1875
-106.21,1683357515.203125
-120.45,1683357515.21875
-130.96,1683357515.234375
-134.52,1683357515.25
-128.73,1683357515.265625
-112.92,1683357515.28125
-88.43,1683357515.296875
-58.25,1683357515.3125
-26.05,1683357515.328125
4.87,1683357515.34375
32.28,1683357515.359375
55.08,1683357515.375
72.97,1683357515.390625
85.94,1683357515.40625
93.97,1683357515.421875
97.08,1683357515.4375
95.60,1683357515.453125
90.47,1683357515.46875
83.15,1683357515.484375
75.31,1683357515.5
68.37,1683357515.515625
63.02,1683357515.53125
59.14,1683357515.546875
56.00,1683357515.5625
52.71,1683357515.578125
48.68,1683357515.59375
43.84,1683357515.609375
38.59,1683357515.625
33.47,1683357515.640625
28.79,1683357515.65625
24.40,1683357515.671875
19.72,1683357515.6875
13.93,1683357515.703125
6.39,1683357515.71875
-3.01,1683357515.734375
-13.83,1683357515.75
-25.16,1683357515.765625
-36.03,1683357515.78125
-45.82,1683357515.796875
-54.54,1683357515.8125
-62.76,1683357515.828125
-71.52,1683357515.84375
-81.92,1683357515.859375
-94.79,1683357515.875
-110.31,1683357515.890625
-127.67,1683357515.90625
-144.90,1683357515.921875
-159.03,1683357515.9375
-166.69,1683357515.953125
-165.07,1683357515.96875
-152.78,1683357515.984375
-130.48,1683357516.0
-100.67,1683357516.015625
-66.93,1683357516.03125
-32.81,1683357516.046875
-0.97,1683357516.0625
27.24,1683357516.078125
51.44,1683357516.09375
71.70,1683357516.109375
87.99,1683357516.125
100.01,1683357516.140625
107.36,1683357516.15625
109.96,1683357516.171875
108.35,1683357516.1875
103.73,1683357516.203125
97.64,1683357516.21875
91.58,1683357516.234375
86.48,1683357516.25
82.52,1683357516.265625
79.30,1683357516.28125
76.15,1683357516.296875
72.58,1683357516.3125
68.53,1683357516.328125
64.25,1683357516.34375
60.09,1683357516.359375
56.12,1683357516.375
51.94,1683357516.390625
46.79,1683357516.40625
39.88,1683357516.421875
30.81,1683357516.4375
19.77,1683357516.453125
7.48,1683357516.46875
-5.08,1683357516.484375
-17.09,1683357516.5
-28.09,1683357516.515625
-38.08,1683357516.53125
-47.43,1683357516.546875
-56.70,1683357516.5625
-66.64,1683357516.578125
-78.08,1683357516.59375
-91.72,1683357516.609375
-107.75,1683357516.625
-125.26,1683357516.640625
-142.00,1683357516.65625
-154.61,1683357516.671875
-159.40,1683357516.6875
-153.60,1683357516.703125
-136.37,1683357516.71875
-109.23,1683357516.734375
-75.52,1683357516.75
-39.35,1683357516.765625
-4.37,1683357516.78125
27.01,1683357516.796875
53.73,1683357516.8125
75.64,1683357516.828125
92.82,1683357516.84375
105.17,1683357516.859375
112.48,1683357516.875
114.73,1683357516.890625
112.48,1683357516.90625
107.00,1683357516.921875
99.97,1683357516.9375
93.05,1683357516.953125
87.26,1683357516.96875
82.84,1683357516.984375
79.30,1683357517.0
75.89,1683357517.015625
71.96,1683357517.03125
67.25,1683357517.046875
61.90,1683357517.0625
56.28,1683357517.078125
50.68,1683357517.09375
45.22,1683357517.109375
39.72,1683357517.125
33.76,1683357517.140625
26.80,1683357517.15625
18.38,1683357517.171875
8.32,1683357517.1875
-3.19,1683357517.203125
-15.53,1683357517.21875
-27.87,1683357517.234375
-39.46,1683357517.25
-49.92,1683357517.265625
-59.36,1683357517.28125
-68.34,1683357517.296875
-77.70,1683357517.3125
-88.31,1683357517.328125
-100.88,1683357517.34375
-115.67,1683357517.359375
-132.21,1683357517.375
-148.96,1683357517.390625
-163.24,1683357517.40625
-171.70,1683357517.421875
-171.11,1683357517.4375
-159.47,1683357517.453125
-136.79,1683357517.46875
-105.23,1683357517.484375
-68.43,1683357517.5
-30.37,1683357517.515625
5.62,1683357517.53125
37.44,1683357517.546875
64.10,1683357517.5625
85.20,1683357517.578125
100.52,1683357517.59375
109.82,1683357517.609375
113.12,1683357517.625
111.05,1683357517.640625
104.98,1683357517.65625
96.87,1683357517.671875
88.65,1683357517.6875
81.71,1683357517.703125
76.49,1683357517.71875
72.64,1683357517.734375
69.34,1683357517.75
65.87,1683357517.765625
61.94,1683357517.78125
57.72,1683357517.796875
53.64,1683357517.8125
49.98,1683357517.828125
46.61,1683357517.84375
42.88,1683357517.859375
37.87,1683357517.875
30.77,1683357517.890625
21.25,1683357517.90625
9.66,1683357517.921875
-3.08,1683357517.9375
-15.74,1683357517.953125
-27.31,1683357517.96875
-37.32,1683357517.984375
-46.06,1683357518.0
-54.43,1683357518.015625
-63.65,1683357518.03125
-74.90,1683357518.046875
-88.98,1683357518.0625
-105.86,1683357518.078125
-124.40,1683357518.09375
-142.26,1683357518.109375
-156.09,1683357518.125
-162.31,1683357518.140625
-158.13,1683357518.15625
-142.49,1683357518.171875
-116.53,1683357518.1875
-83.22,1683357518.203125
-46.40,1683357518.21875
-9.70,1683357518.234375
24.24,1683357518.25
53.91,1683357518.265625
78.60,1683357518.28125
97.85,1683357518.296875
111.24,1683357518.3125
118.52,1683357518.328125
119.92,1683357518.34375
116.43,1683357518.359375
109.75,1683357518.375
101.84,1683357518.390625
94.34,1683357518.40625
88.20,1683357518.421875
83.48,1683357518.4375
79.63,1683357518.453125
75.86,1683357518.46875
71.57,1683357518.484375
66.64,1683357518.5
61.41,1683357518.515625
56.41,1683357518.53125
51.98,1683357518.546875
47.96,1683357518.5625
43.69,1683357518.578125
38.22,1683357518.59375
30.73,1683357518.609375
20.95,1683357518.625
9.33,1683357518.640625
-3.13,1683357518.65625
-15.30,1683357518.671875
-26.33,1683357518.6875
-35.95,1683357518.703125
-44.55,1683357518.71875
-52.96,1683357518.734375
-62.25,1683357518.75
-73.45,1683357518.765625
-87.28,1683357518.78125
-103.84,1683357518.796875
-122.24,1683357518.8125
-140.40,1683357518.828125
-155.16,1683357518.84375
-162.91,1683357518.859375
-160.58,1683357518.875
-146.67,1683357518.890625
-121.83,1683357518.90625
-88.72,1683357518.921875
-51.19,1683357518.9375
-13.26,1683357518.953125
21.90,1683357518.96875
52.34,1683357518.984375
77.24,1683357519.0
96.46,1683357519.015625
110.10,1683357519.03125
118.30,1683357519.046875
121.32,1683357519.0625
119.74,1683357519.078125
114.52,1683357519.09375
107.08,1683357519.109375
98.95,1683357519.125
91.43,1683357519.140625
85.34,1683357519.15625
80.80,1683357519.171875
77.32,1683357519.1875
74.12,1683357519.203125
70.50,1683357519.21875
66.08,1683357519.234375
60.95,1683357519.25
55.49,1683357519.265625
50.02,1683357519.28125
44.60,1683357519.296875
38.85,1683357519.3125
32.15,1683357519.328125
23.87,1683357519.34375
13.77,1683357519.359375
2.15,1683357519.375
-10.22,1683357519.390625
-22.33,1683357519.40625
-33.38,1683357519.421875
-43.00,1683357519.4375
-51.45,1683357519.453125
-59.47,1683357519.46875
-68.06,1683357519.484375
-78.20,1683357519.5
-90.62,1683357519.515625
-105.37,1683357519.53125
-121.68,1683357519.546875
-137.65,1683357519.5625
-150.44,1683357519.578125
-156.78,1683357519.59375
-153.89,1683357519.609375
-140.35,1683357519.625
-116.75,1683357519.640625
-85.53,1683357519.65625
-50.32,1683357519.671875
-14.87,1683357519.6875
17.81,1683357519.703125
45.88,1683357519.71875
68.47,1683357519.734375
85.29,1683357519.75
96.25,1683357519.765625
101.43,1683357519.78125
101.27,1683357519.796875
96.83,1683357519.8125
89.76,1683357519.828125
81.93,1683357519.84375
74.97,1683357519.859375
69.72,1683357519.875
66.11,1683357519.890625
63.35,1683357519.90625
60.50,1683357519.921875
56.91,1683357519.9375
52.62,1683357519.953125
48.11,1683357519.96875
43.99,1683357519.984375
40.49,1683357520.0
37.23,1683357520.015625
33.33,1683357520.03125
27.80,1683357520.046875
20.02,1683357520.0625
10.00,1683357520.078125
-1.59,1683357520.09375
-13.77,1683357520.109375
-25.58,1683357520.125
-36.42,1683357520.140625
-46.11,1683357520.15625
-54.96,1683357520.171875
-63.63,1683357520.1875
-73.03,1683357520.203125
-84.16,1683357520.21875
-97.61,1683357520.234375
-113.08,1683357520.25
-128.97,1683357520.265625
-142.32,1683357520.28125
-149.56,1683357520.296875
-147.57,1683357520.3125
-134.70,1683357520.328125
-111.42,1683357520.34375
-80.10,1683357520.359375
-44.23,1683357520.375
-7.41,1683357520.390625
27.39,1683357520.40625
58.12,1683357520.421875
83.37,1683357520.4375
102.19,1683357520.453125
113.97,1683357520.46875
118.64,1683357520.484375
116.95,1683357520.5
110.54,1683357520.515625
101.74,1683357520.53125
92.99,1683357520.546875
86.22,1683357520.5625
82.22,1683357520.578125
80.55,1683357520.59375
79.83,1683357520.609375
78.46,1683357520.625
75.30,1683357520.640625
70.10,1683357520.65625
63.48,1683357520.671875
56.51,1683357520.6875
50.18,1683357520.703125
44.81,1683357520.71875
39.86,1683357520.734375
34.30,1683357520.75
27.15,1683357520.765625
17.88,1683357520.78125
6.70,1683357520.796875
-5.68,1683357520.8125
-18.17,1683357520.828125
-29.60,1683357520.84375
-39.29,1683357520.859375
-47.32,1683357520.875
-54.44,1683357520.890625
-61.90,1683357520.90625
-71.10,1683357520.921875
-83.20,1683357520.9375
-98.52,1683357520.953125
-115.89,1683357520.96875
-132.18,1683357520.984375
-143.33,1683357521.0
-145.42,1683357521.015625
-135.86,1683357521.03125
-114.32,1683357521.046875
-82.88,1683357521.0625
-45.56,1683357521.078125
-7.05,1683357521.09375
28.76,1683357521.109375
59.80,1683357521.125
85.04,1683357521.140625
104.03,1683357521.15625
116.47,1683357521.171875
122.41,1683357521.1875
122.65,1683357521.203125
118.71,1683357521.21875
112.78,1683357521.234375
104.34,1683357521.25
94.35,1683357521.265625
84.48,1683357521.28125
76.76,1683357521.296875
73.33,1683357521.3125
75.86,1683357521.328125
84.50,1683357521.34375
97.41,1683357521.359375
109.18,1683357521.375
113.27,1683357521.390625
104.47,1683357521.40625
80.51,1683357521.421875
42.73,1683357521.4375
-4.70,1683357521.453125
-55.57,1683357521.46875
-102.79,1683357521.484375
-140.75,1683357521.5
-166.28,1683357521.515625
-177.89,1683357521.53125
-175.43,1683357521.546875
-160.74,1683357521.5625
-137.77,1683357521.578125
-111.90,1683357521.59375
-88.57,1683357521.609375
-72.06,1683357521.625
-64.53,1683357521.640625
-66.02,1683357521.65625
-74.32,1683357521.671875
-86.73,1683357521.6875
-101.35,1683357521.703125
-117.14,1683357521.71875
-132.67,1683357521.734375
-145.31,1683357521.75
-151.69,1683357521.765625
-149.29,1683357521.78125
-137.95,1683357521.796875
-119.43,1683357521.8125
-98.14,1683357521.828125
-80.21,1683357521.84375
-71.08,1683357521.859375
-72.54,1683357521.875
-81.36,1683357521.890625
-90.72,1683357521.90625
-93.12,1683357521.921875
-82.94,1683357521.9375
-56.26,1683357521.953125
-12.24,1683357521.96875
46.43,1683357521.984375
114.15,1683357522.0
183.69,1683357522.015625
247.51,1683357522.03125
298.75,1683357522.046875
332.51,1683357522.0625
339.14,1683357522.078125
316.04,1683357522.09375
271.82,1683357522.109375
222.48,1683357522.125
181.31,1683357522.140625
152.73,1683357522.15625
134.20,1683357522.171875
121.16,1683357522.1875
110.53,1683357522.203125
101.20,1683357522.21875
94.82,1683357522.234375
91.25,1683357522.25
88.21,1683357522.265625
82.46,1683357522.28125
71.85,1683357522.296875
56.61,1683357522.3125
38.79,1683357522.328125
20.92,1683357522.34375
4.29,1683357522.359375
-10.93,1683357522.375
-24.18,1683357522.390625
-37.52,1683357522.40625
-54.51,1683357522.421875
-78.34,1683357522.4375
-110.21,1683357522.453125
-148.42,1683357522.46875
-188.46,1683357522.484375
-223.92,1683357522.5
-247.34,1683357522.515625
-253.11,1683357522.53125
-239.82,1683357522.546875
-210.73,1683357522.5625
-172.27,1683357522.578125
-131.71,1683357522.59375
-94.98,1683357522.609375
-65.50,1683357522.625
-44.11,1683357522.640625
-29.51,1683357522.65625
-19.75,1683357522.671875
-13.45,1683357522.6875
-9.87,1683357522.703125
-8.57,1683357522.71875
-9.03,1683357522.734375
-10.55,1683357522.75
-12.53,1683357522.765625
-14.53,1683357522.78125
-16.09,1683357522.796875
-16.76,1683357522.8125
-16.25,1683357522.828125
-14.29,1683357522.84375
-10.82,1683357522.859375
-6.15,1683357522.875
-1.03,1683357522.890625
3.44,1683357522.90625
6.09,1683357522.921875
6.03,1683357522.9375
2.88,1683357522.953125
-3.32,1683357522.96875
-12.13,1683357522.984375
-22.93,1683357523.0
-35.03,1683357523.015625
-47.69,1683357523.03125
-60.04,1683357523.046875
-70.95,1683357523.0625
-79.02,1683357523.078125
-82.65,1683357523.09375
-80.30,1683357523.109375
-70.88,1683357523.125
-54.16,1683357523.140625
-31.09,1683357523.15625
-3.77,1683357523.171875
25.01,1683357523.1875
52.36,1683357523.203125
75.94,1683357523.21875
94.22,1683357523.234375
106.51,1683357523.25
112.80,1683357523.265625
113.61,1683357523.28125
109.90,1683357523.296875
103.04,1683357523.3125
94.67,1683357523.328125
86.39,1683357523.34375
79.37,1683357523.359375
74.12,1683357523.375
70.40,1683357523.390625
67.52,1683357523.40625
64.68,1683357523.421875
61.31,1683357523.4375
57.32,1683357523.453125
52.90,1683357523.46875
48.40,1683357523.484375
43.94,1683357523.5
39.27,1683357523.515625
33.74,1683357523.53125
26.48,1683357523.546875
16.80,1683357523.5625
4.45,1683357523.578125
-10.12,1683357523.59375
-25.92,1683357523.609375
-41.53,1683357523.625
-55.54,1683357523.640625
-66.95,1683357523.65625
-75.45,1683357523.671875
-81.60,1683357523.6875
-86.66,1683357523.703125
-92.17,1683357523.71875
-99.14,1683357523.734375
-107.44,1683357523.75
-115.49,1683357523.765625
-120.68,1683357523.78125
-120.39,1683357523.796875
-112.99,1683357523.8125
-98.54,1683357523.828125
-78.62,1683357523.84375
-55.58,1683357523.859375
-31.61,1683357523.875
-8.12,1683357523.890625
14.21,1683357523.90625
34.98,1683357523.921875
53.61,1683357523.9375
69.20,1683357523.953125
80.80,1683357523.96875
87.90,1683357523.984375
90.67,1683357524.0
90.02,1683357524.015625
87.23,1683357524.03125
83.60,1683357524.046875
80.05,1683357524.0625
77.09,1683357524.078125
74.75,1683357524.09375
72.72,1683357524.109375
70.64,1683357524.125
68.19,1683357524.140625
65.28,1683357524.15625
62.02,1683357524.171875
58.57,1683357524.1875
54.85,1683357524.203125
50.46,1683357524.21875
44.67,1683357524.234375
36.88,1683357524.25
26.99,1683357524.265625
15.68,1683357524.28125
4.21,1683357524.296875
-6.08,1683357524.3125
-14.36,1683357524.328125
-20.72,1683357524.34375
-26.08,1683357524.359375
-31.82,1683357524.375
-39.17,1683357524.390625
-48.92,1683357524.40625
-61.17,1683357524.421875
-75.40,1683357524.4375
-90.36,1683357524.453125
-104.14,1683357524.46875
-114.30,1683357524.484375
-118.32,1683357524.5
-114.24,1683357524.515625
-101.39,1683357524.53125
-80.68,1683357524.546875
-54.43,1683357524.5625
-25.65,1683357524.578125
2.79,1683357524.59375
28.79,1683357524.609375
51.19,1683357524.625
69.52,1683357524.640625
83.65,1683357524.65625
93.56,1683357524.671875
99.36,1683357524.6875
101.49,1683357524.703125
100.82,1683357524.71875
98.54,1683357524.734375
95.87,1683357524.75
93.62,1683357524.765625
91.97,1683357524.78125
90.43,1683357524.796875
88.22,1683357524.8125
84.60,1683357524.828125
79.23,1683357524.84375
72.32,1683357524.859375
64.42,1683357524.875
56.15,1683357524.890625
47.95,1683357524.90625
39.94,1683357524.921875
32.09,1683357524.9375
24.47,1683357524.953125
17.35,1683357524.96875
11.27,1683357524.984375
6.81,1683357525.0
4.38,1683357525.015625
3.94,1683357525.03125
4.83,1683357525.046875
5.75,1683357525.0625
4.92,1683357525.078125
0.30,1683357525.09375
-9.96,1683357525.109375
-27.01,1683357525.125
-50.67,1683357525.140625
-79.06,1683357525.15625
-108.53,1683357525.171875
-134.24,1683357525.1875
-151.23,1683357525.203125
-155.75,1683357525.21875
-146.30,1683357525.234375
-123.95,1683357525.25
-91.97,1683357525.265625
-54.59,1683357525.28125
-15.88,1683357525.296875
21.17,1683357525.3125
54.92,1683357525.328125
84.60,1683357525.34375
109.80,1683357525.359375
130.04,1683357525.375
144.84,1683357525.390625
154.15,1683357525.40625
158.62,1683357525.421875
159.59,1683357525.4375
158.66,1683357525.453125
157.17,1683357525.46875
155.72,1683357525.484375
154.22,1683357525.5
152.16,1683357525.515625
149.05,1683357525.53125
144.62,1683357525.546875
138.76,1683357525.5625
131.41,1683357525.578125
122.36,1683357525.59375
111.35,1683357525.609375
98.09,1683357525.625
82.45,1683357525.640625
64.44,1683357525.65625
44.10,1683357525.671875
21.55,1683357525.6875
-2.89,1683357525.703125
-28.55,1683357525.71875
-54.34,1683357525.734375
-78.98,1683357525.75
-101.41,1683357525.765625
-121.32,1683357525.78125
-139.25,1683357525.796875
-156.45,1683357525.8125
-174.30,1683357525.828125
-193.62,1683357525.84375
-214.35,1683357525.859375
-235.44,1683357525.875
-255.03,1683357525.890625
-270.81,1683357525.90625
-280.39,1683357525.921875
-281.83,1683357525.9375
-274.09,1683357525.953125
-257.47,1683357525.96875
-233.66,1683357525.984375
-205.26,1683357526.0
-175.00,1683357526.015625
-144.82,1683357526.03125
-115.47,1683357526.046875
-86.84,1683357526.0625
-58.68,1683357526.078125
-31.42,1683357526.09375
-6.44,1683357526.109375
14.39,1683357526.125
29.57,1683357526.140625
38.70,1683357526.15625
42.68,1683357526.171875
43.23,1683357526.1875
42.19,1683357526.203125
40.97,1683357526.21875
40.29,1683357526.234375
40.38,1683357526.25
41.22,1683357526.265625
42.71,1683357526.28125
44.57,1683357526.296875
46.23,1683357526.3125
46.81,1683357526.328125
45.36,1683357526.34375
41.21,1683357526.359375
34.29,1683357526.375
25.14,1683357526.390625
14.79,1683357526.40625
4.45,1683357526.421875
-4.77,1683357526.4375
-11.94,1683357526.453125
-16.45,1683357526.46875
-18.10,1683357526.484375
-17.27,1683357526.5
-15.08,1683357526.515625
-13.28,1683357526.53125
-13.95,1683357526.546875
-18.76,1683357526.5625
-28.25,1683357526.578125
-41.44,1683357526.59375
-55.98,1683357526.609375
-68.97,1683357526.625
-77.92,1683357526.640625
-81.55,1683357526.65625
-79.90,1683357526.671875
-73.84,1683357526.6875
-64.29,1683357526.703125
-51.61,1683357526.71875
-35.42,1683357526.734375
-15.05,1683357526.75
9.71,1683357526.765625
37.85,1683357526.78125
66.94,1683357526.796875
93.43,1683357526.8125
113.61,1683357526.828125
124.76,1683357526.84375
126.13,1683357526.859375
119.24,1683357526.875
107.46,1683357526.890625
94.85,1683357526.90625
84.83,1683357526.921875
79.19,1683357526.9375
77.78,1683357526.953125
79.00,1683357526.96875
80.68,1683357526.984375
80.86,1683357527.0
78.27,1683357527.015625
72.46,1683357527.03125
63.53,1683357527.046875
52.13,1683357527.0625
39.17,1683357527.078125
25.75,1683357527.09375
12.94,1683357527.109375
1.61,1683357527.125
-7.76,1683357527.140625
-15.22,1683357527.15625
-21.36,1683357527.171875
-27.20,1683357527.1875
-34.03,1683357527.203125
-43.11,1683357527.21875
-55.33,1683357527.234375
-70.89,1683357527.25
-89.14,1683357527.265625
-108.48,1683357527.28125
-126.55,1683357527.296875
-140.61,1683357527.3125
-148.17,1683357527.328125
-147.53,1683357527.34375
-138.16,1683357527.359375
-120.80,1683357527.375
-97.06,1683357527.390625
-68.90,1683357527.40625
-38.04,1683357527.421875
-5.65,1683357527.4375
27.51,1683357527.453125
60.44,1683357527.46875
91.38,1683357527.484375
117.60,1683357527.5
135.90,1683357527.515625
143.89,1683357527.53125
141.11,1683357527.546875
129.68,1683357527.5625
113.83,1683357527.578125
98.53,1683357527.59375
87.74,1683357527.609375
83.18,1683357527.625
84.15,1683357527.640625
88.42,1683357527.65625
93.45,1683357527.671875
97.55,1683357527.6875
100.10,1683357527.703125
101.12,1683357527.71875
100.46,1683357527.734375
97.44,1683357527.75
90.85,1683357527.765625
79.63,1683357527.78125
63.51,1683357527.796875
43.54,1683357527.8125
21.87,1683357527.828125
1.13,1683357527.84375
-16.51,1683357527.859375
-30.16,1683357527.875
-40.61,1683357527.890625
-50.02,1683357527.90625
-61.03,1683357527.921875
-75.76,1683357527.9375
-94.90,1683357527.953125
-117.42,1683357527.96875
-140.80,1683357527.984375
-161.77,1683357528.0
-177.04,1683357528.015625
-184.01,1683357528.03125
-181.15,1683357528.046875
-168.21,1683357528.0625
-146.36,1683357528.078125
-117.91,1683357528.09375
-86.01,1683357528.109375
-53.91,1683357528.125
-24.33,1683357528.140625
1.21,1683357528.15625
22.45,1683357528.171875
40.14,1683357528.1875
55.46,1683357528.203125
69.37,1683357528.21875
82.33,1683357528.234375
94.32,1683357528.25
105.01,1683357528.265625
114.02,1683357528.28125
121.03,1683357528.296875
125.72,1683357528.3125
127.79,1683357528.328125
127.02,1683357528.34375
123.54,1683357528.359375
117.95,1683357528.375
111.29,1683357528.390625
104.74,1683357528.40625
99.16,1683357528.421875
94.72,1683357528.4375
90.87,1683357528.453125
86.58,1683357528.46875
80.82,1683357528.484375
72.93,1683357528.5
62.86,1683357528.515625
51.14,1683357528.53125
38.57,1683357528.546875
26.07,1683357528.5625
14.26,1683357528.578125
3.37,1683357528.59375
-6.80,1683357528.609375
-16.92,1683357528.625
-27.87,1683357528.640625
-40.58,1683357528.65625
-55.70,1683357528.671875
-73.25,1683357528.6875
-92.31,1683357528.703125
-110.76,1683357528.71875
-125.58,1683357528.734375
-133.44,1683357528.75
-131.76,1683357528.765625
-119.57,1683357528.78125
-98.03,1683357528.796875
-70.06,1683357528.8125
-39.39,1683357528.828125
-9.36,1683357528.84375
17.87,1683357528.859375
41.37,1683357528.875
60.91,1683357528.890625
76.28,1683357528.90625
86.95,1683357528.921875
92.30,1683357528.9375
92.20,1683357528.953125
87.46,1683357528.96875
79.80,1683357528.984375
71.27,1683357529.0
63.59,1683357529.015625
57.54,1683357529.03125
52.93,1683357529.046875
49.02,1683357529.0625
44.95,1683357529.078125
40.15,1683357529.09375
34.50,1683357529.109375
28.21,1683357529.125
21.68,1683357529.140625
15.22,1683357529.15625
9.07,1683357529.171875
3.08,1683357529.1875
-3.27,1683357529.203125
-10.81,1683357529.21875
-20.29,1683357529.234375
-32.07,1683357529.25
-45.81,1683357529.265625
-60.60,1683357529.28125
-75.30,1683357529.296875
-89.06,1683357529.3125
-101.67,1683357529.328125
-113.62,1683357529.34375
-125.77,1683357529.359375
-139.15,1683357529.375
-154.61,1683357529.390625
-172.66,1683357529.40625
-193.26,1683357529.421875
-215.51,1683357529.4375
-237.32,1683357529.453125
-255.40,1683357529.46875
-265.80,1683357529.484375
-264.89,1683357529.5
-250.47,1683357529.515625
-222.51,1683357529.53125
-183.26,1683357529.546875
-136.58,1683357529.5625
-86.90,1683357529.578125
-38.23,1683357529.59375
6.41,1683357529.609375
45.15,1683357529.625
76.94,1683357529.640625
101.33,1683357529.65625
118.39,1683357529.671875
128.84,1683357529.6875
133.98,1683357529.703125
135.55,1683357529.71875
135.30,1683357529.734375
134.42,1683357529.75
133.29,1683357529.765625
131.54,1683357529.78125
128.38,1683357529.796875
123.21,1683357529.8125
115.97,1683357529.828125
107.20,1683357529.84375
97.77,1683357529.859375
88.50,1683357529.875
79.80,1683357529.890625
71.61,1683357529.90625
63.51,1683357529.921875
54.92,1683357529.9375
45.31,1683357529.953125
34.44,1683357529.96875
22.47,1683357529.984375
9.96,1683357530.0
-2.27,1683357530.015625
-13.48,1683357530.03125
-23.23,1683357530.046875
-31.61,1683357530.0625
-39.30,1683357530.078125
-47.35,1683357530.09375
-56.93,1683357530.109375
-68.89,1683357530.125
-83.30,1683357530.140625
-99.12,1683357530.15625
-114.08,1683357530.171875
-125.17,1683357530.1875
-129.33,1683357530.203125
-124.52,1683357530.21875
-110.37,1683357530.234375
-88.42,1683357530.25
-61.56,1683357530.265625
-33.16,1683357530.28125
-6.17,1683357530.296875
17.44,1683357530.3125
36.65,1683357530.328125
51.03,1683357530.34375
60.43,1683357530.359375
64.80,1683357530.375
64.37,1683357530.390625
59.92,1683357530.40625
52.82,1683357530.421875
44.89,1683357530.4375
37.89,1683357530.453125
32.95,1683357530.46875
30.29,1683357530.484375
29.12,1683357530.5
28.13,1683357530.515625
26.12,1683357530.53125
22.51,1683357530.546875
17.62,1683357530.5625
12.33,1683357530.578125
7.62,1683357530.59375
3.91,1683357530.609375
0.89,1683357530.625
-2.30,1683357530.640625
-6.59,1683357530.65625
-12.38,1683357530.671875
-19.38,1683357530.6875
-26.71,1683357530.703125
-33.52,1683357530.71875
-39.38,1683357530.734375
-44.58,1683357530.75
-49.97,1683357530.765625
-56.66,1683357530.78125
-65.63,1683357530.796875
-77.40,1683357530.8125
-91.92,1683357530.828125
-108.26,1683357530.84375
-124.52,1683357530.859375
-137.90,1683357530.875
-145.10,1683357530.890625
-143.17,1683357530.90625
-130.51,1683357530.921875
-107.59,1683357530.9375
-76.91,1683357530.953125
-42.36,1683357530.96875
-7.92,1683357530.984375
23.29,1683357531.0
49.59,1683357531.015625
70.65,1683357531.03125
86.79,1683357531.046875
98.47,1683357531.0625
105.94,1683357531.078125
109.32,1683357531.09375
108.95,1683357531.109375
105.64,1683357531.125
100.70,1683357531.140625
95.57,1683357531.15625
91.39,1683357531.171875
88.59,1683357531.1875
86.81,1683357531.203125
85.16,1683357531.21875
82.74,1683357531.234375
79.09,1683357531.25
74.38,1683357531.265625
69.29,1683357531.28125
64.50,1683357531.296875
60.20,1683357531.3125
55.93,1683357531.328125
50.71,1683357531.34375
43.51,1683357531.359375
33.77,1683357531.375
21.72,1683357531.390625
8.30,1683357531.40625
-5.14,1683357531.421875
-17.44,1683357531.4375
-28.00,1683357531.453125
-37.08,1683357531.46875
-45.61,1683357531.484375
-54.91,1683357531.5
-66.28,1683357531.515625
-80.65,1683357531.53125
-98.41,1683357531.546875
-119.09,1683357531.5625
-141.19,1683357531.578125
-162.16,1683357531.59375
-178.53,1683357531.609375
-186.70,1683357531.625
-183.92,1683357531.640625
-169.19,1683357531.65625
-143.81,1683357531.671875
-111.07,1683357531.6875
-75.25,1683357531.703125
-40.42,1683357531.71875
-9.45,1683357531.734375
16.32,1683357531.75
36.74,1683357531.765625
52.15,1683357531.78125
62.89,1683357531.796875
69.00,1683357531.8125
70.54,1683357531.828125
67.90,1683357531.84375
62.06,1683357531.859375
54.44,1683357531.875
46.56,1683357531.890625
39.54,1683357531.90625
33.77,1683357531.921875
28.94,1683357531.9375
24.32,1683357531.953125
19.23,1683357531.96875
13.35,1683357531.984375
6.80,1683357532.0
-0.06,1683357532.015625
-6.99,1683357532.03125
-14.13,1683357532.046875
-21.98,1683357532.0625
-31.18,1683357532.078125
-42.11,1683357532.09375
-54.57,1683357532.109375
-67.75,1683357532.125
-80.45,1683357532.140625
-91.53,1683357532.15625
-100.28,1683357532.171875
-106.57,1683357532.1875
-110.77,1683357532.203125
-113.39,1683357532.21875
-114.89,1683357532.234375
-115.65,1683357532.25
-116.22,1683357532.265625
-117.50,1683357532.28125
-120.56,1683357532.296875
-126.11,1683357532.3125
-133.76,1683357532.328125
-141.62,1683357532.34375
-146.59,1683357532.359375
-145.27,1683357532.375
-135.17,1683357532.390625
-115.43,1683357532.40625
-86.85,1683357532.421875
-51.15,1683357532.4375
-10.37,1683357532.453125
33.52,1683357532.46875
78.50,1683357532.484375
122.01,1683357532.5
160.90,1683357532.515625
191.64,1683357532.53125
211.25,1683357532.546875
218.12,1683357532.5625
212.65,1683357532.578125
197.16,1683357532.59375
175.42,1683357532.609375
151.71,1683357532.625
130.00,1683357532.640625
113.14,1683357532.65625
102.44,1683357532.671875
97.64,1683357532.6875
97.25,1683357532.703125
99.18,1683357532.71875
101.41,1683357532.734375
102.47,1683357532.75
101.61,1683357532.765625
98.68,1683357532.78125
93.88,1683357532.796875
87.50,1683357532.8125
79.85,1683357532.828125
71.17,1683357532.84375
61.67,1683357532.859375
51.58,1683357532.875
41.10,1683357532.890625
30.41,1683357532.90625
19.62,1683357532.921875
8.80,1683357532.9375
-2.03,1683357532.953125
-12.88,1683357532.96875
-23.80,1683357532.984375
-34.97,1683357533.0
-46.83,1683357533.015625
-60.01,1683357533.03125
-75.26,1683357533.046875
-92.94,1683357533.0625
-112.41,1683357533.078125
-131.67,1683357533.09375
-147.37,1683357533.109375
-155.69,1683357533.125
-153.48,1683357533.140625
-139.52,1683357533.15625
-114.97,1683357533.171875
-83.05,1683357533.1875
-47.94,1683357533.203125
-13.46,1683357533.21875
17.88,1683357533.234375
45.07,1683357533.25
68.14,1683357533.265625
87.39,1683357533.28125
102.81,1683357533.296875
114.04,1683357533.3125
120.74,1683357533.328125
123.14,1683357533.34375
122.19,1683357533.359375
119.47,1683357533.375
116.60,1683357533.390625
114.67,1683357533.40625
113.87,1683357533.421875
113.59,1683357533.4375
112.79,1683357533.453125
110.60,1683357533.46875
106.66,1683357533.484375
101.26,1683357533.5
95.01,1683357533.515625
88.52,1683357533.53125
82.04,1683357533.546875
75.40,1683357533.5625
68.12,1683357533.578125
59.65,1683357533.59375
49.74,1683357533.609375
38.56,1683357533.625
26.76,1683357533.640625
15.22,1683357533.65625
4.69,1683357533.671875
-4.48,1683357533.6875
-12.59,1683357533.703125
-20.44,1683357533.71875
-29.10,1683357533.734375
-39.66,1683357533.75
-52.92,1683357533.765625
-69.28,1683357533.78125
-88.43,1683357533.796875
-109.14,1683357533.8125
-129.07,1683357533.828125
-144.94,1683357533.84375
-153.16,1683357533.859375
-150.82,1683357533.875
-136.71,1683357533.890625
-111.79,1683357533.90625
-78.92,1683357533.921875
-42.02,1683357533.9375
-4.90,1683357533.953125
29.46,1683357533.96875
59.20,1683357533.984375
83.20,1683357534.0
100.66,1683357534.015625
110.94,1683357534.03125
113.79,1683357534.046875
109.77,1683357534.0625
100.51,1683357534.078125
88.50,1683357534.09375
76.59,1683357534.109375
67.10,1683357534.125
61.31,1683357534.140625
59.20,1683357534.15625
59.66,1683357534.171875
61.08,1683357534.1875
61.95,1683357534.203125
61.27,1683357534.21875
58.75,1683357534.234375
54.65,1683357534.25
49.50,1683357534.265625
43.66,1683357534.28125
37.14,1683357534.296875
29.55,1683357534.3125
20.37,1683357534.328125
9.29,1683357534.34375
-3.47,1683357534.359375
-17.07,1683357534.375
-30.38,1683357534.390625
-42.36,1683357534.40625
-52.52,1683357534.421875
-61.13,1683357534.4375
-69.05,1683357534.453125
-77.48,1683357534.46875
-87.53,1683357534.484375
-99.99,1683357534.5
-115.18,1683357534.515625
-132.67,1683357534.53125
-151.05,1683357534.546875
-167.81,1683357534.5625
-179.48,1683357534.578125
-182.44,1683357534.59375
-173.98,1683357534.609375
-153.33,1683357534.625
-122.11,1683357534.640625
-83.92,1683357534.65625
-43.19,1683357534.671875
-3.84,1683357534.6875
31.58,1683357534.703125
62.04,1683357534.71875
87.43,1683357534.734375
107.86,1683357534.75
123.22,1683357534.765625
133.22,1683357534.78125
137.83,1683357534.796875
137.64,1683357534.8125
134.02,1683357534.828125
128.72,1683357534.84375
123.45,1683357534.859375
119.31,1683357534.875
116.46,1683357534.890625
114.28,1683357534.90625
111.68,1683357534.921875
107.63,1683357534.9375
101.65,1683357534.953125
94.00,1683357534.96875
85.54,1683357534.984375
77.42,1683357535.0
70.44,1683357535.015625
64.67,1683357535.03125
59.37,1683357535.046875
53.30,1683357535.0625
45.28,1683357535.078125
34.82,1683357535.09375
22.44,1683357535.109375
9.49,1683357535.125
-2.25,1683357535.140625
-11.25,1683357535.15625
-16.68,1683357535.171875
-18.65,1683357535.1875
-18.08,1683357535.203125
-16.64,1683357535.21875
-16.42,1683357535.234375
-19.72,1683357535.25
-28.43,1683357535.265625
-43.31,1683357535.28125
-63.19,1683357535.296875
-84.71,1683357535.3125
-102.94,1683357535.328125
-112.77,1683357535.34375
-110.58,1683357535.359375
-95.55,1683357535.375
-69.74,1683357535.390625
-37.13,1683357535.40625
-2.11,1683357535.421875
31.87,1683357535.4375
62.79,1683357535.453125
89.67,1683357535.46875
111.84,1683357535.484375
128.42,1683357535.5
138.45,1683357535.515625
141.41,1683357535.53125
137.82,1683357535.546875
129.35,1683357535.5625
118.34,1683357535.578125
107.05,1683357535.59375
96.88,1683357535.609375
88.11,1683357535.625
80.10,1683357535.640625
71.93,1683357535.65625
63.00,1683357535.671875
53.33,1683357535.6875
43.57,1683357535.703125
34.59,1683357535.71875
27.03,1683357535.734375
20.96,1683357535.75
15.72,1683357535.765625
10.15,1683357535.78125
2.90,1683357535.796875
-7.09,1683357535.8125
-20.26,1683357535.828125
-36.23,1683357535.84375
-53.94,1683357535.859375
-72.01,1683357535.875
-89.16,1683357535.890625
-104.68,1683357535.90625
-118.52,1683357535.921875
-131.15,1683357535.9375
-143.31,1683357535.953125
-155.72,1683357535.96875
-168.84,1683357535.984375
-182.68,1683357536.0
-196.59,1683357536.015625
-209.02,1683357536.03125
-217.60,1683357536.046875
-219.43,1683357536.0625
-211.98,1683357536.078125
-193.96,1683357536.09375
-165.99,1683357536.109375
-130.58,1683357536.125
-91.41,1683357536.140625
-52.21,1683357536.15625
-15.84,1683357536.171875
16.03,1683357536.1875
42.71,1683357536.203125
63.87,1683357536.21875
79.24,1683357536.234375
88.60,1683357536.25
92.16,1683357536.265625
90.91,1683357536.28125
86.66,1683357536.296875
81.55,1683357536.3125
77.37,1683357536.328125
74.97,1683357536.34375
74.15,1683357536.359375
73.98,1683357536.375
73.41,1683357536.390625
71.80,1683357536.40625
69.13,1683357536.421875
65.79,1683357536.4375
62.17,1683357536.453125
58.29,1683357536.46875
53.70,1683357536.484375
47.67,1683357536.5
39.62,1683357536.515625
29.51,1683357536.53125
17.92,1683357536.546875
5.86,1683357536.5625
-5.59,1683357536.578125
-15.75,1683357536.59375
-24.58,1683357536.609375
-32.70,1683357536.625
-41.16,1683357536.640625
-51.13,1683357536.65625
-63.60,1683357536.671875
-79.06,1683357536.6875
-97.19,1683357536.703125
-116.63,1683357536.71875
-134.89,1683357536.734375
-148.77,1683357536.75
-155.02,1683357536.765625
-151.43,1683357536.78125
-137.48,1683357536.796875
-114.59,1683357536.8125
-85.56,1683357536.828125
-53.68,1683357536.84375
-21.85,1683357536.859375
7.76,1683357536.875
33.68,1683357536.890625
54.69,1683357536.90625
69.65,1683357536.921875
77.58,1683357536.9375
78.15,1683357536.953125
72.05,1683357536.96875
61.12,1683357536.984375
47.94,1683357537.0
35.12,1683357537.015625
24.58,1683357537.03125
17.06,1683357537.046875
12.21,1683357537.0625
8.98,1683357537.078125
6.28,1683357537.09375
3.56,1683357537.109375
1.01,1683357537.125
-0.52,1683357537.140625
-0.01,1683357537.15625
3.39,1683357537.171875
9.92,1683357537.1875
19.12,1683357537.203125
29.83,1683357537.21875
40.43,1683357537.234375
49.08,1683357537.25
54.05,1683357537.265625
54.02,1683357537.28125
48.32,1683357537.296875
37.02,1683357537.3125
20.86,1683357537.328125
0.95,1683357537.34375
-21.48,1683357537.359375
-45.42,1683357537.375
-70.20,1683357537.390625
-95.22,1683357537.40625
-119.58,1683357537.421875
-141.65,1683357537.4375
-159.02,1683357537.453125
-168.86,1683357537.46875
-168.76,1683357537.484375
-157.69,1683357537.5
-136.40,1683357537.515625
-107.37,1683357537.53125
-73.99,1683357537.546875
-39.56,1683357537.5625
-6.52,1683357537.578125
23.78,1683357537.59375
50.75,1683357537.609375
74.00,1683357537.625
93.00,1683357537.640625
107.02,1683357537.65625
115.49,1683357537.671875
118.42,1683357537.6875
116.63,1683357537.703125
111.65,1683357537.71875
105.22,1683357537.734375
98.86,1683357537.75
93.30,1683357537.765625
88.47,1683357537.78125
83.71,1683357537.796875
78.25,1683357537.8125
71.78,1683357537.828125
64.74,1683357537.84375
58.12,1683357537.859375
52.97,1683357537.875
49.76,1683357537.890625
47.88,1683357537.90625
45.70,1683357537.921875
41.07,1683357537.9375
32.19,1683357537.953125
18.37,1683357537.96875
0.34,1683357537.984375
-19.99,1683357538.0
-40.24,1683357538.015625
-58.23,1683357538.03125
-72.56,1683357538.046875
-82.63,1683357538.0625
-88.64,1683357538.078125
-91.35,1683357538.09375
-91.96,1683357538.109375
-92.00,1683357538.125
-92.94,1683357538.140625
-95.70,1683357538.15625
-100.05,1683357538.171875
-104.36,1683357538.1875
-105.85,1683357538.203125
-101.45,1683357538.21875
-88.92,1683357538.234375
-67.64,1683357538.25
-38.86,1683357538.265625
-5.15,1683357538.28125
30.53,1683357538.296875
65.56,1683357538.3125
98.03,1683357538.328125
126.45,1683357538.34375
149.35,1683357538.359375
165.13,1683357538.375
172.45,1683357538.390625
170.95,1683357538.40625
161.80,1683357538.421875
147.83,1683357538.4375
132.67,1683357538.453125
119.74,1683357538.46875
111.07,1683357538.484375
106.91,1683357538.5
105.90,1683357538.515625
106.00,1683357538.53125
105.47,1683357538.546875
103.46,1683357538.5625
100.26,1683357538.578125
96.85,1683357538.59375
94.29,1683357538.609375
93.17,1683357538.625
93.23,1683357538.640625
93.55,1683357538.65625
92.80,1683357538.671875
89.83,1683357538.6875
83.91,1683357538.703125
74.85,1683357538.71875
62.98,1683357538.734375
48.81,1683357538.75
33.02,1683357538.765625
16.27,1683357538.78125
-0.90,1683357538.796875
-18.23,1683357538.8125
-35.93,1683357538.828125
-54.75,1683357538.84375
-75.79,1683357538.859375
-100.02,1683357538.875
-127.69,1683357538.890625
-157.60,1683357538.90625
-187.02,1683357538.921875
-211.90,1683357538.9375
-227.93,1683357538.953125
-231.82,1683357538.96875
-222.45,1683357538.984375
-201.35,1683357539.0
-172.20,1683357539.015625
-139.68,1683357539.03125
-107.90,1683357539.046875
-79.47,1683357539.0625
-55.20,1683357539.078125
-34.66,1683357539.09375
-17.12,1683357539.109375
-2.20,1683357539.125
9.88,1683357539.140625
18.85,1683357539.15625
24.82,1683357539.171875
28.65,1683357539.1875
31.72,1683357539.203125
35.30,1683357539.21875
39.96,1683357539.234375
45.26,1683357539.25
50.02,1683357539.265625
52.95,1683357539.28125
53.32,1683357539.296875
51.22,1683357539.3125
47.45,1683357539.328125
42.98,1683357539.34375
38.41,1683357539.359375
33.75,1683357539.375
28.54,1683357539.390625
22.21,1683357539.40625
14.51,1683357539.421875
5.75,1683357539.4375
-3.26,1683357539.453125
-11.46,1683357539.46875
-17.83,1683357539.484375
-21.76,1683357539.5
-23.25,1683357539.515625
-23.02,1683357539.53125
-22.43,1683357539.546875
-23.21,1683357539.5625
-27.20,1683357539.578125
-35.99,1683357539.59375
-50.47,1683357539.609375
-70.52,1683357539.625
-94.62,1683357539.640625
-119.77,1683357539.65625
-141.81,1683357539.671875
-156.19,1683357539.6875
-159.17,1683357539.703125
-148.82,1683357539.71875
-125.71,1683357539.734375
-92.80,1683357539.75
-54.55,1683357539.765625
-15.69,1683357539.78125
19.85,1683357539.796875
49.53,1683357539.8125
72.18,1683357539.828125
87.58,1683357539.84375
95.95,1683357539.859375
97.74,1683357539.875
93.71,1683357539.890625
85.12,1683357539.90625
73.78,1683357539.921875
61.82,1683357539.9375
51.24,1683357539.953125
43.35,1683357539.96875
38.50,1683357539.984375
36.09,1683357540.0
35.01,1683357540.015625
34.06,1683357540.03125
32.46,1683357540.046875
29.92,1683357540.0625
26.56,1683357540.078125
22.64,1683357540.09375
18.26,1683357540.109375
13.33,1683357540.125
7.52,1683357540.140625
0.53,1683357540.15625
-7.65,1683357540.171875
-16.64,1683357540.1875
-25.67,1683357540.203125
-33.88,1683357540.21875
-40.68,1683357540.234375
-46.02,1683357540.25
-50.44,1683357540.265625
-54.90,1683357540.28125
-60.39,1683357540.296875
-67.70,1683357540.3125
-77.39,1683357540.328125
-89.68,1683357540.34375
-104.43,1683357540.359375
-120.71,1683357540.375
-136.61,1683357540.390625
-149.21,1683357540.40625
-155.14,1683357540.421875
-151.70,1683357540.4375
-137.88,1683357540.453125
-114.95,1683357540.46875
-86.02,1683357540.484375
-54.95,1683357540.5
-24.97,1683357540.515625
2.04,1683357540.53125
25.67,1683357540.546875
46.30,1683357540.5625
64.25,1683357540.578125
79.31,1683357540.59375
90.78,1683357540.609375
97.90,1683357540.625
100.38,1683357540.640625
98.70,1683357540.65625
93.96,1683357540.671875
87.56,1683357540.6875
80.88,1683357540.703125
74.86,1683357540.71875
69.95,1683357540.734375
66.17,1683357540.75
63.21,1683357540.765625
60.53,1683357540.78125
57.57,1683357540.796875
53.84,1683357540.8125
49.16,1683357540.828125
43.79,1683357540.84375
38.53,1683357540.859375
34.58,1683357540.875
33.11,1683357540.890625
34.78,1683357540.90625
39.27,1683357540.921875
45.17,1683357540.9375
50.39,1683357540.953125
52.85,1683357540.96875
51.26,1683357540.984375
45.51,1683357541.0
36.59,1683357541.015625
25.89,1683357541.03125
14.52,1683357541.046875
2.69,1683357541.0625
-10.21,1683357541.078125
-25.23,1683357541.09375
-43.06,1683357541.109375
-63.38,1683357541.125
-84.59,1683357541.140625
-103.93,1683357541.15625
-118.15,1683357541.171875
-124.34,1683357541.1875
-120.77,1683357541.203125
-107.40,1683357541.21875
-85.96,1683357541.234375
-59.43,1683357541.25
-31.24,1683357541.265625
-4.31,1683357541.28125
19.59,1683357541.296875
39.82,1683357541.3125
56.65,1683357541.328125
70.64,1683357541.34375
82.28,1683357541.359375
91.81,1683357541.375
99.28,1683357541.390625
104.62,1683357541.40625
107.79,1683357541.421875
108.76,1683357541.4375
107.57,1683357541.453125
104.38,1683357541.46875
99.47,1683357541.484375
93.20,1683357541.5
85.95,1683357541.515625
78.06,1683357541.53125
69.84,1683357541.546875
61.58,1683357541.5625
53.66,1683357541.578125
46.51,1683357541.59375
40.50,1683357541.609375
35.79,1683357541.625
32.19,1683357541.640625
29.16,1683357541.65625
25.89,1683357541.671875
21.46,1683357541.6875
14.93,1683357541.703125
5.46,1683357541.71875
-7.41,1683357541.734375
-23.60,1683357541.75
-42.28,1683357541.765625
-62.02,1683357541.78125
-81.10,1683357541.796875
-98.14,1683357541.8125
-112.48,1683357541.828125
-124.44,1683357541.84375
-135.13,1683357541.859375
-145.96,1683357541.875
-157.96,1683357541.890625
-171.13,1683357541.90625
-184.18,1683357541.921875
-194.57,1683357541.9375
-199.18,1683357541.953125
-195.24,1683357541.96875
-181.29,1683357541.984375
-157.78,1683357542.0
-126.97,1683357542.015625
-92.30,1683357542.03125
-57.28,1683357542.046875
-24.65,1683357542.0625
4.09,1683357542.078125
28.50,1683357542.09375
48.59,1683357542.109375
64.39,1683357542.125
75.77,1683357542.140625
82.66,1683357542.15625
85.47,1683357542.171875
85.26,1683357542.1875
83.54,1683357542.203125
81.74,1683357542.21875
80.74,1683357542.234375
80.55,1683357542.25
80.59,1683357542.265625
80.02,1683357542.28125
78.35,1683357542.296875
75.57,1683357542.3125
72.13,1683357542.328125
68.61,1683357542.34375
65.36,1683357542.359375
62.32,1683357542.375
59.01,1683357542.390625
54.73,1683357542.40625
48.82,1683357542.421875
40.88,1683357542.4375
30.94,1683357542.453125
19.56,1683357542.46875
7.66,1683357542.484375
-3.76,1683357542.5
-13.95,1683357542.515625
-22.78,1683357542.53125
-30.73,1683357542.546875
-38.76,1683357542.5625
-47.89,1683357542.578125
-58.88,1683357542.59375
-72.02,1683357542.609375
-87.05,1683357542.625
-103.11,1683357542.640625
-118.64,1683357542.65625
-131.41,1683357542.671875
-138.80,1683357542.6875
-138.40,1683357542.703125
-128.79,1683357542.71875
-110.13,1683357542.734375
-84.24,1683357542.75
-54.08,1683357542.765625
-22.86,1683357542.78125
6.80,1683357542.796875
33.22,1683357542.8125
55.52,1683357542.828125
73.22,1683357542.84375
85.98,1683357542.859375
93.56,1683357542.875
96.13,1683357542.890625
94.51,1683357542.90625
90.08,1683357542.921875
84.51,1683357542.9375
79.22,1683357542.953125
75.05,1683357542.96875
72.10,1683357542.984375
69.94,1683357543.0
67.94,1683357543.015625
65.64,1683357543.03125
62.88,1683357543.046875
59.76,1683357543.0625
56.43,1683357543.078125
52.85,1683357543.09375
48.70,1683357543.109375
43.30,1683357543.125
36.02,1683357543.140625
26.48,1683357543.15625
14.88,1683357543.171875
2.03,1683357543.1875
-10.96,1683357543.203125
-23.05,1683357543.21875
-33.75,1683357543.234375
-43.30,1683357543.25
-52.60,1683357543.265625
-62.88,1683357543.28125
-75.33,1683357543.296875
-90.64,1683357543.3125
-108.58,1683357543.328125
-127.74,1683357543.34375
-145.48,1683357543.359375
-158.34,1683357543.375
-162.83,1683357543.390625
-156.53,1683357543.40625
-138.91,1683357543.421875
-111.58,1683357543.4375
-77.75,1683357543.453125
-41.31,1683357543.46875
-5.65,1683357543.484375
26.83,1683357543.5
54.80,1683357543.515625
77.57,1683357543.53125
94.71,1683357543.546875
105.97,1683357543.5625
111.43,1683357543.578125
111.80,1683357543.59375
108.44,1683357543.609375
103.02,1683357543.625
97.13,1683357543.640625
91.76,1683357543.65625
87.17,1683357543.671875
83.05,1683357543.6875
78.87,1683357543.703125
74.25,1683357543.71875
69.19,1683357543.734375
64.07,1683357543.75
59.40,1683357543.765625
55.48,1683357543.78125
52.17,1683357543.796875
48.85,1683357543.8125
44.59,1683357543.828125
38.53,1683357543.84375
30.19,1683357543.859375
19.72,1683357543.875
7.82,1683357543.890625
-4.50,1683357543.90625
-16.33,1683357543.921875
-27.19,1683357543.9375
-37.26,1683357543.953125
-47.22,1683357543.96875
-58.14,1683357543.984375
-71.18,1683357544.0
-87.14,1683357544.015625
-106.07,1683357544.03125
-126.82,1683357544.046875
-146.91,1683357544.0625
-162.81,1683357544.078125
-170.71,1683357544.09375
-167.64,1683357544.109375
-152.51,1683357544.125
-126.54,1683357544.140625
-92.94,1683357544.15625
-55.93,1683357544.171875
-19.52,1683357544.1875
13.47,1683357544.203125
41.68,1683357544.21875
64.90,1683357544.234375
83.41,1683357544.25
97.50,1683357544.265625
107.19,1683357544.28125
112.48,1683357544.296875
113.71,1683357544.3125
111.68,1683357544.328125
107.67,1683357544.34375
103.05,1683357544.359375
98.82,1683357544.375
95.33,1683357544.390625
92.28,1683357544.40625
89.04,1683357544.421875
85.08,1683357544.4375
80.32,1683357544.453125
75.14,1683357544.46875
70.20,1683357544.484375
65.89,1683357544.5
62.05,1683357544.515625
57.94,1683357544.53125
52.44,1683357544.546875
44.67,1683357544.5625
34.39,1683357544.578125
22.17,1683357544.59375
9.17,1683357544.609375
-3.38,1683357544.625
-14.68,1683357544.640625
-24.68,1683357544.65625
-34.02,1683357544.671875
-43.67,1683357544.6875
-54.60,1683357544.703125
-67.52,1683357544.71875
-82.75,1683357544.734375
-99.94,1683357544.75
-117.99,1683357544.765625
-134.72,1683357544.78125
-147.17,1683357544.796875
-152.10,1683357544.8125
-147.05,1683357544.828125
-131.17,1683357544.84375
-105.65,1683357544.859375
-73.40,1683357544.875
-38.14,1683357544.890625
-3.33,1683357544.90625
28.56,1683357544.921875
56.20,1683357544.9375
79.06,1683357544.953125
96.87,1683357544.96875
109.41,1683357544.984375
116.50,1683357545.0
118.34,1683357545.015625
115.77,1683357545.03125
110.21,1683357545.046875
103.46,1683357545.0625
97.13,1683357545.078125
92.24,1683357545.09375
88.93,1683357545.109375
86.67,1683357545.125
84.56,1683357545.140625
81.86,1683357545.15625
78.37,1683357545.171875
74.31,1683357545.1875
70.12,1683357545.203125
66.04,1683357545.21875
61.82,1683357545.234375
56.75,1683357545.25
50.01,1683357545.265625
41.11,1683357545.28125
30.17,1683357545.296875
17.95,1683357545.3125
5.51,1683357545.328125
-6.20,1683357545.34375
-16.68,1683357545.359375
-26.05,1683357545.375
-34.90,1683357545.390625
-44.16,1683357545.40625
-54.77,1683357545.421875
-67.53,1683357545.4375
-82.88,1683357545.453125
-100.57,1683357545.46875
-119.40,1683357545.484375
-137.04,1683357545.5
-150.40,1683357545.515625
-156.27,1683357545.53125
-152.29,1683357545.546875
-137.80,1683357545.5625
-114.08,1683357545.578125
-83.96,1683357545.59375
-51.07,1683357545.609375
-18.74,1683357545.625
10.55,1683357545.640625
35.41,1683357545.65625
55.25,1683357545.671875
69.93,1683357545.6875
79.46,1683357545.703125
84.03,1683357545.71875
84.14,1683357545.734375
80.73,1683357545.75
75.07,1683357545.765625
68.55,1683357545.78125
62.32,1683357545.796875
57.07,1683357545.8125
52.98,1683357545.828125
49.80,1683357545.84375
47.14,1683357545.859375
44.64,1683357545.875
42.18,1683357545.890625
39.77,1683357545.90625
37.38,1683357545.921875
34.77,1683357545.9375
31.38,1683357545.953125
26.52,1683357545.96875
19.62,1683357545.984375
10.62,1683357546.0
0.07,1683357546.015625
-11.06,1683357546.03125
-21.72,1683357546.046875
-31.33,1683357546.0625
-39.95,1683357546.078125
-48.39,1683357546.09375
-57.79,1683357546.109375
-69.32,1683357546.125
-83.56,1683357546.140625
-100.18,1683357546.15625
-117.70,1683357546.171875
-133.54,1683357546.1875
-144.50,1683357546.203125
-147.53,1683357546.21875
-140.66,1683357546.234375
-123.57,1683357546.25
-97.80,1683357546.265625
-66.25,1683357546.28125
-32.44,1683357546.296875
0.25,1683357546.3125
29.01,1683357546.328125
51.62,1683357546.34375
66.43,1683357546.359375
72.47,1683357546.375
69.83,1683357546.390625
59.93,1683357546.40625
45.63,1683357546.421875
30.57,1683357546.4375
18.22,1683357546.453125
10.81,1683357546.46875
8.78,1683357546.484375
10.95,1683357546.5
15.27,1683357546.515625
19.70,1683357546.53125
22.95,1683357546.546875
24.62,1683357546.5625
24.93,1683357546.578125
24.18,1683357546.59375
22.48,1683357546.609375
19.56,1683357546.625
15.06,1683357546.640625
8.77,1683357546.65625
0.86,1683357546.671875
-8.09,1683357546.6875
-17.27,1683357546.703125
-25.97,1683357546.71875
-33.84,1683357546.734375
-41.09,1683357546.75
-48.43,1683357546.765625
-56.86,1683357546.78125
-67.37,1683357546.796875
-80.64,1683357546.8125
-96.67,1683357546.828125
-114.50,1683357546.84375
-132.13,1683357546.859375
-146.63,1683357546.875
-154.83,1683357546.890625
-154.14,1683357546.90625
-143.40,1683357546.921875
-123.28,1683357546.9375
-96.08,1683357546.953125
-64.95,1683357546.96875
-33.02,1683357546.984375
-2.60,1683357547.0
24.95,1683357547.015625
48.97,1683357547.03125
69.11,1683357547.046875
85.02,1683357547.0625
96.41,1683357547.078125
103.25,1683357547.09375
106.00,1683357547.109375
105.64,1683357547.125
103.37,1683357547.140625
100.21,1683357547.15625
96.78,1683357547.171875
93.15,1683357547.1875
89.08,1683357547.203125
84.34,1683357547.21875
78.98,1683357547.234375
73.43,1683357547.25
68.34,1683357547.265625
64.24,1683357547.28125
61.26,1683357547.296875
58.94,1683357547.3125
56.36,1683357547.328125
52.44,1683357547.34375
46.39,1683357547.359375
37.97,1683357547.375
27.68,1683357547.390625
16.49,1683357547.40625
5.45,1683357547.421875
-4.75,1683357547.4375
-14.11,1683357547.453125
-23.26,1683357547.46875
-33.22,1683357547.484375
-45.03,1683357547.5
-59.35,1683357547.515625
-76.19,1683357547.53125
-94.62,1683357547.546875
-112.78,1683357547.5625
-127.94,1683357547.578125
-137.09,1683357547.59375
-137.69,1683357547.609375
-128.52,1683357547.625
-110.17,1683357547.640625
-84.88,1683357547.65625
-55.87,1683357547.671875
-26.22,1683357547.6875
1.76,1683357547.703125
26.86,1683357547.71875
48.63,1683357547.734375
66.83,1683357547.75
81.09,1683357547.765625
90.92,1683357547.78125
96.07,1683357547.796875
96.85,1683357547.8125
94.32,1683357547.828125
89.99,1683357547.84375
85.35,1683357547.859375
81.44,1683357547.875
78.60,1683357547.890625
76.51,1683357547.90625
74.49,1683357547.921875
71.95,1683357547.9375
68.61,1683357547.953125
64.64,1683357547.96875
60.44,1683357547.984375
56.40,1683357548.0
52.56,1683357548.015625
48.50,1683357548.03125
43.48,1683357548.046875
36.73,1683357548.0625
27.91,1683357548.078125
17.23,1683357548.09375
5.56,1683357548.109375
-6.02,1683357548.125
-16.60,1683357548.140625
-25.85,1683357548.15625
-34.08,1683357548.171875
-42.07,1683357548.1875
-50.76,1683357548.203125
-61.03,1683357548.21875
-73.43,1683357548.234375
-88.05,1683357548.25
-104.30,1683357548.265625
-120.65,1683357548.28125
-134.67,1683357548.296875
-143.39,1683357548.3125
-144.12,1683357548.328125
-135.31,1683357548.34375
-117.20,1683357548.359375
-91.76,1683357548.375
-62.08,1683357548.390625
-31.43,1683357548.40625
-2.49,1683357548.421875
22.99,1683357548.4375
44.07,1683357548.453125
60.32,1683357548.46875
71.57,1683357548.484375
77.89,1683357548.5
79.75,1683357548.515625
78.06,1683357548.53125
74.09,1683357548.546875
69.13,1683357548.5625
64.24,1683357548.578125
60.00,1683357548.59375
56.52,1683357548.609375
53.61,1683357548.625
51.02,1683357548.640625
48.55,1683357548.65625
46.10,1683357548.671875
43.66,1683357548.6875
41.12,1683357548.703125
38.26,1683357548.71875
34.72,1683357548.734375
30.09,1683357548.75
24.13,1683357548.765625
16.80,1683357548.78125
8.41,1683357548.796875
-0.51,1683357548.8125
-9.37,1683357548.828125
-17.76,1683357548.84375
-25.60,1683357548.859375
-33.24,1683357548.875
-41.40,1683357548.890625
-50.98,1683357548.90625
-62.73,1683357548.921875
-76.78,1683357548.9375
-92.30,1683357548.953125
-107.31,1683357548.96875
-119.01,1683357548.984375
-124.40,1683357549.0
-121.27,1683357549.015625
-108.94,1683357549.03125
-88.49,1683357549.046875
-62.45,1683357549.0625
-33.92,1683357549.078125
-5.76,1683357549.09375
20.00,1683357549.109375
42.19,1683357549.125
60.19,1683357549.140625
73.59,1683357549.15625
82.11,1683357549.171875
85.76,1683357549.1875
85.06,1683357549.203125
81.14,1683357549.21875
75.44,1683357549.234375
69.39,1683357549.25
63.92,1683357549.265625
59.39,1683357549.28125
55.63,1683357549.296875
52.30,1683357549.3125
49.08,1683357549.328125
45.90,1683357549.34375
42.74,1683357549.359375
39.60,1683357549.375
36.27,1683357549.390625
32.32,1683357549.40625
27.19,1683357549.421875
20.42,1683357549.4375
11.84,1683357549.453125
1.76,1683357549.46875
-9.10,1683357549.484375
-19.82,1683357549.5
-29.67,1683357549.515625
-38.38,1683357549.53125
-46.34,1683357549.546875
-54.53,1683357549.5625
-64.19,1683357549.578125
-76.43,1683357549.59375
-91.69,1683357549.609375
-109.32,1683357549.625
-127.40,1683357549.640625
-142.94,1683357549.65625
-152.49,1683357549.671875
-153.10,1683357549.6875
-143.23,1683357549.703125
-123.30,1683357549.71875
-95.64,1683357549.734375
-63.69,1683357549.75
-30.96,1683357549.765625
-0.16,1683357549.78125
27.23,1683357549.796875
50.68,1683357549.8125
70.08,1683357549.828125
85.24,1683357549.84375
95.77,1683357549.859375
101.40,1683357549.875
102.41,1683357549.890625
99.80,1683357549.90625
95.15,1683357549.921875
90.08,1683357549.9375
85.65,1683357549.953125
82.07,1683357549.96875
78.84,1683357549.984375
75.21,1683357550.0
70.73,1683357550.015625
65.53,1683357550.03125
60.23,1683357550.046875
55.50,1683357550.0625
51.63,1683357550.078125
48.26,1683357550.09375
44.43,1683357550.109375
39.08,1683357550.125
31.45,1683357550.140625
21.49,1683357550.15625
9.88,1683357550.171875
-2.31,1683357550.1875
-14.03,1683357550.203125
-24.64,1683357550.21875
-34.22,1683357550.234375
-43.44,1683357550.25
-53.35,1683357550.265625
-65.00,1683357550.28125
-79.12,1683357550.296875
-95.67,1683357550.3125
-113.54,1683357550.328125
-130.45,1683357550.34375
-143.27,1683357550.359375
-148.74,1683357550.375
-144.51,1683357550.390625
-129.96,1683357550.40625
-106.47,1683357550.421875
-76.96,1683357550.4375
-44.91,1683357550.453125
-13.33,1683357550.46875
15.84,1683357550.484375
41.73,1683357550.5
64.04,1683357550.515625
82.51,1683357550.53125
96.71,1683357550.546875
106.18,1683357550.5625
110.89,1683357550.578125
111.52,1683357550.59375
109.44,1683357550.609375
106.29,1683357550.625
103.37,1683357550.640625
101.20,1683357550.65625
99.47,1683357550.671875
97.33,1683357550.6875
93.99,1683357550.703125
89.14,1683357550.71875
83.17,1683357550.734375
76.89,1683357550.75
71.13,1683357550.765625
66.22,1683357550.78125
61.78,1683357550.796875
56.89,1683357550.8125
50.42,1683357550.828125
41.61,1683357550.84375
30.38,1683357550.859375
17.42,1683357550.875
3.85,1683357550.890625
-9.14,1683357550.90625
-20.82,1683357550.921875
-31.11,1683357550.9375
-40.54,1683357550.953125
-50.00,1683357550.96875
-60.47,1683357550.984375
-72.74,1683357551.0
-87.22,1683357551.015625
-103.67,1683357551.03125
-121.02,1683357551.046875
-137.18,1683357551.0625
-149.26,1683357551.078125
-154.25,1683357551.09375
-149.93,1683357551.109375
-135.72,1683357551.125
-112.95,1683357551.140625
-84.44,1683357551.15625
-53.55,1683357551.171875
-23.25,1683357551.1875
4.49,1683357551.203125
28.61,1683357551.21875
48.58,1683357551.234375
63.96,1683357551.25
74.36,1683357551.265625
79.64,1683357551.28125
80.27,1683357551.296875
77.43,1683357551.3125
72.76,1683357551.328125
67.79,1683357551.34375
63.52,1683357551.359375
60.10,1683357551.375
57.04,1683357551.390625
53.60,1683357551.40625
49.25,1683357551.421875
43.97,1683357551.4375
38.23,1683357551.453125
32.71,1683357551.46875
27.94,1683357551.484375
23.95,1683357551.5
20.12,1683357551.515625
15.35,1683357551.53125
8.39,1683357551.546875
-1.70,1683357551.5625
-15.04,1683357551.578125
-30.85,1683357551.59375
-47.55,1683357551.609375
-63.28,1683357551.625
-76.52,1683357551.640625
-86.64,1683357551.65625
-93.97,1683357551.671875
-99.70,1683357551.6875
-105.31,1683357551.703125
-111.95,1683357551.71875
-119.97,1683357551.734375
-128.62,1683357551.75
-136.11,1683357551.765625
-140.05,1683357551.78125
-138.08,1683357551.796875
-128.60,1683357551.8125
-111.27,1683357551.828125
-87.20,1683357551.84375
-58.59,1683357551.859375
-28.04,1683357551.875
2.05,1683357551.890625
29.86,1683357551.90625
54.23,1683357551.921875
74.33,1683357551.9375
89.45,1683357551.953125
99.11,1683357551.96875
103.21,1683357551.984375
102.34,1683357552.0
97.85,1683357552.015625
91.53,1683357552.03125
85.11,1683357552.046875
79.75,1683357552.0625
75.80,1683357552.078125
72.90,1683357552.09375
70.32,1683357552.109375
67.44,1683357552.125
63.98,1683357552.140625
60.06,1683357552.15625
55.97,1683357552.171875
51.83,1683357552.1875
47.50,1683357552.203125
42.51,1683357552.21875
36.30,1683357552.234375
28.50,1683357552.25
19.19,1683357552.265625
8.89,1683357552.28125
-1.59,1683357552.296875
-11.47,1683357552.3125
-20.36,1683357552.328125
-28.39,1683357552.34375
-36.16,1683357552.359375
-44.60,1683357552.375
-54.64,1683357552.390625
-66.95,1683357552.40625
-81.66,1683357552.421875
-98.11,1683357552.4375
-114.59,1683357552.453125
-128.58,1683357552.46875
-137.05,1683357552.484375
-137.37,1683357552.5
-128.09,1683357552.515625
-109.53,1683357552.53125
-83.74,1683357552.546875
-53.95,1683357552.5625
-23.50,1683357552.578125
4.99,1683357552.59375
30.03,1683357552.609375
51.11,1683357552.625
68.21,1683357552.640625
81.30,1683357552.65625
90.21,1683357552.671875
94.84,1683357552.6875
95.50,1683357552.703125
93.10,1683357552.71875
89.04,1683357552.734375
84.71,1683357552.75
81.09,1683357552.765625
78.40,1683357552.78125
76.24,1683357552.796875
73.86,1683357552.8125
70.72,1683357552.828125
66.69,1683357552.84375
62.15,1683357552.859375
57.66,1683357552.875
53.65,1683357552.890625
50.07,1683357552.90625
46.46,1683357552.921875
42.01,1683357552.9375
36.02,1683357552.953125
28.14,1683357552.96875
18.58,1683357552.984375
7.98,1683357553.0
-2.78,1683357553.015625
-12.96,1683357553.03125
-22.16,1683357553.046875
-30.47,1683357553.0625
-38.36,1683357553.078125
-46.49,1683357553.09375
-55.60,1683357553.109375
-66.31,1683357553.125
-78.99,1683357553.140625
-93.45,1683357553.15625
-108.63,1683357553.171875
-122.46,1683357553.1875
-132.13,1683357553.203125
-134.77,1683357553.21875
-128.37,1683357553.234375
-112.64,1683357553.25
-89.17,1683357553.265625
-60.92,1683357553.28125
-31.24,1683357553.296875
-2.89,1683357553.3125
22.47,1683357553.328125
44.21,1683357553.34375
62.16,1683357553.359375
76.20,1683357553.375
86.08,1683357553.390625
91.62,1683357553.40625
93.05,1683357553.421875
91.19,1683357553.4375
87.27,1683357553.453125
82.57,1683357553.46875
78.02,1683357553.484375
74.03,1683357553.5
70.48,1683357553.515625
67.00,1683357553.53125
63.22,1683357553.546875
58.99,1683357553.5625
54.41,1683357553.578125
49.76,1683357553.59375
45.33,1683357553.609375
41.25,1683357553.625
37.41,1683357553.640625
33.43,1683357553.65625
28.71,1683357553.671875
22.71,1683357553.6875
15.14,1683357553.703125
6.13,1683357553.71875
-3.77,1683357553.734375
-13.76,1683357553.75
-23.06,1683357553.765625
-31.26,1683357553.78125
-38.36,1683357553.796875
-44.79,1683357553.8125
-51.23,1683357553.828125
-58.42,1683357553.84375
-66.99,1683357553.859375
-77.25,1683357553.875
-88.96,1683357553.890625
-101.01,1683357553.90625
-111.41,1683357553.921875
-117.55,1683357553.9375
-116.90,1683357553.953125
-107.87,1683357553.96875
-90.48,1683357553.984375
-66.49,1683357554.0
-38.83,1683357554.015625
-10.71,1683357554.03125
15.28,1683357554.046875
37.60,1683357554.0625
55.68,1683357554.078125
69.49,1683357554.09375
79.07,1683357554.109375
84.34,1683357554.125
85.32,1683357554.140625
82.41,1683357554.15625
76.58,1683357554.171875
69.31,1683357554.1875
62.13,1683357554.203125
56.17,1683357554.21875
51.79,1683357554.234375
48.57,1683357554.25
45.65,1683357554.265625
42.28,1683357554.28125
38.22,1683357554.296875
33.84,1683357554.3125
29.87,1683357554.328125
26.90,1683357554.34375
24.96,1683357554.359375
23.40,1683357554.375
21.17,1683357554.390625
17.34,1683357554.40625
11.49,1683357554.421875
3.88,1683357554.4375
-4.71,1683357554.453125
-13.38,1683357554.46875
-21.47,1683357554.484375
-28.76,1683357554.5
-35.41,1683357554.515625
-41.82,1683357554.53125
-48.56,1683357554.546875
-56.23,1683357554.5625
-65.36,1683357554.578125
-76.12,1683357554.59375
-87.87,1683357554.609375
-98.99,1683357554.625
-107.07,1683357554.640625
-109.50,1683357554.65625
-104.39,1683357554.671875
-91.22,1683357554.6875
-71.14,1683357554.703125
-46.49,1683357554.71875
-20.09,1683357554.734375
5.49,1683357554.75
28.42,1683357554.765625
47.59,1683357554.78125
62.43,1683357554.796875
72.69,1683357554.8125
78.33,1683357554.828125
79.65,1683357554.84375
77.36,1683357554.859375
72.56,1683357554.875
66.54,1683357554.890625
60.43,1683357554.90625
54.93,1683357554.921875
50.15,1683357554.9375
45.74,1683357554.953125
41.15,1683357554.96875
36.02,1683357554.984375
30.41,1683357555.0
24.77,1683357555.015625
19.64,1683357555.03125
15.28,1683357555.046875
11.46,1683357555.0625
7.53,1683357555.078125
2.69,1683357555.09375
-3.63,1683357555.109375
-11.47,1683357555.125
-20.42,1683357555.140625
-29.77,1683357555.15625
-38.88,1683357555.171875
-47.37,1683357555.1875
-55.29,1683357555.203125
-62.99,1683357555.21875
-71.13,1683357555.234375
-80.43,1683357555.25
-91.54,1683357555.265625
-104.62,1683357555.28125
-118.94,1683357555.296875
-132.70,1683357555.3125
-143.18,1683357555.328125
-147.42,1683357555.34375
-143.20,1683357555.359375
-129.83,1683357555.375
-108.45,1683357555.390625
-81.65,1683357555.40625
-52.55,1683357555.421875
-23.92,1683357555.4375
2.42,1683357555.453125
25.57,1683357555.46875
45.15,1683357555.484375
60.81,1683357555.5
72.09,1683357555.515625
78.64,1683357555.53125
80.56,1683357555.546875
78.74,1683357555.5625
74.68,1683357555.578125
70.15,1683357555.59375
66.57,1683357555.609375
64.59,1683357555.625
64.03,1683357555.640625
64.12,1683357555.65625
63.97,1683357555.671875
62.93,1683357555.6875
60.88,1683357555.703125
58.08,1683357555.71875
54.87,1683357555.734375
51.41,1683357555.75
47.47,1683357555.765625
42.54,1683357555.78125
36.08,1683357555.796875
27.84,1683357555.8125
17.99,1683357555.828125
7.15,1683357555.84375
-3.89,1683357555.859375
-14.42,1683357555.875
-24.05,1683357555.890625
-32.78,1683357555.90625
-40.96,1683357555.921875
-49.14,1683357555.9375
-57.95,1683357555.953125
-68.09,1683357555.96875
-80.08,1683357555.984375
-93.95,1683357556.0
-108.87,1683357556.015625
-122.89,1683357556.03125
-133.17,1683357556.046875
-136.72,1683357556.0625
-131.43,1683357556.078125
-116.90,1683357556.09375
-94.67,1683357556.109375
-67.69,1683357556.125
-39.32,1683357556.140625
-12.34,1683357556.15625
11.66,1683357556.171875
32.10,1683357556.1875
49.03,1683357556.203125
62.54,1683357556.21875
72.54,1683357556.234375
78.87,1683357556.25
81.55,1683357556.265625
81.06,1683357556.28125
78.31,1683357556.296875
74.48,1683357556.3125
70.64,1683357556.328125
67.49,1683357556.34375
65.14,1683357556.359375
63.27,1683357556.375
61.33,1683357556.390625
58.86,1683357556.40625
55.74,1683357556.421875
52.19,1683357556.4375
48.55,1683357556.453125
45.03,1683357556.46875
41.58,1683357556.484375
37.80,1683357556.5
33.18,1683357556.515625
27.33,1683357556.53125
20.10,1683357556.546875
11.70,1683357556.5625
2.55,1683357556.578125
-6.82,1683357556.59375
-15.94,1683357556.609375
-24.48,1683357556.625
-32.41,1683357556.640625
-39.91,1683357556.65625
-47.43,1683357556.671875
-55.56,1683357556.6875
-64.95,1683357556.703125
-76.16,1683357556.71875
-89.34,1683357556.734375
-103.90,1683357556.75
-118.25,1683357556.765625
-129.83,1683357556.78125
-135.59,1683357556.796875
-132.96,1683357556.8125
-120.77,1683357556.828125
-99.82,1683357556.84375
-72.76,1683357556.859375
-43.15,1683357556.875
-14.30,1683357556.890625
11.57,1683357556.90625
33.60,1683357556.921875
51.83,1683357556.9375
66.47,1683357556.953125
77.45,1683357556.96875
84.43,1683357556.984375
87.21,1683357557.0
86.16,1683357557.015625
82.44,1683357557.03125
77.58,1683357557.046875
73.09,1683357557.0625
69.89,1683357557.078125
68.13,1683357557.09375
67.27,1683357557.109375
66.53,1683357557.125
65.20,1683357557.140625
62.95,1683357557.15625
59.78,1683357557.171875
55.90,1683357557.1875
51.59,1683357557.203125
46.99,1683357557.21875
42.02,1683357557.234375
36.52,1683357557.25
30.25,1683357557.265625
23.03,1683357557.28125
14.83,1683357557.296875
5.81,1683357557.3125
-3.77,1683357557.328125
-13.51,1683357557.34375
-23.04,1683357557.359375
-32.15,1683357557.375
-40.92,1683357557.390625
-49.75,1683357557.40625
-59.36,1683357557.421875
-70.53,1683357557.4375
-83.78,1683357557.453125
-98.97,1683357557.46875
-114.97,1683357557.484375
-129.67,1683357557.5
-140.31,1683357557.515625
-144.21,1683357557.53125
-139.56,1683357557.546875
-126.06,1683357557.5625
-105.07,1683357557.578125
-79.16,1683357557.59375
-51.42,1683357557.609375
-24.53,1683357557.625
-0.36,1683357557.640625
20.09,1683357557.65625
36.41,1683357557.671875
48.36,1683357557.6875
55.60,1683357557.703125
57.84,1683357557.71875
55.16,1683357557.734375
48.30,1683357557.75
38.81,1683357557.765625
28.74,1683357557.78125
20.15,1683357557.796875
14.50,1683357557.8125
12.28,1683357557.828125
13.09,1683357557.84375
16.00,1683357557.859375
20.11,1683357557.875
24.89,1683357557.890625
30.20,1683357557.90625
35.96,1683357557.921875
41.70,1683357557.9375
46.39,1683357557.953125
48.61,1683357557.96875
47.20,1683357557.984375
41.71,1683357558.0
32.76,1683357558.015625
21.73,1683357558.03125
10.25,1683357558.046875
-0.43,1683357558.0625
-9.78,1683357558.078125
-18.03,1683357558.09375
-25.91,1683357558.109375
-34.31,1683357558.125
-44.10,1683357558.140625
-55.92,1683357558.15625
-69.99,1683357558.171875
-85.71,1683357558.1875
-101.51,1683357558.203125
-114.86,1683357558.21875
-122.76,1683357558.234375
-122.69,1683357558.25
-113.51,1683357558.265625
-95.92,1683357558.28125
-72.22,1683357558.296875
-45.43,1683357558.3125
-18.32,1683357558.328125
7.27,1683357558.34375
30.48,1683357558.359375
50.94,1683357558.375
68.28,1683357558.390625
81.90,1683357558.40625
91.23,1683357558.421875
96.13,1683357558.4375
97.32,1683357558.453125
96.22,1683357558.46875
94.45,1683357558.484375
93.20,1683357558.5
92.76,1683357558.515625
92.55,1683357558.53125
91.58,1683357558.546875
89.05,1683357558.5625
84.79,1683357558.578125
79.31,1683357558.59375
73.50,1683357558.609375
68.08,1683357558.625
63.22,1683357558.640625
58.45,1683357558.65625
52.88,1683357558.671875
45.62,1683357558.6875
36.22,1683357558.703125
24.82,1683357558.71875
12.11,1683357558.734375
-1.00,1683357558.75
-13.66,1683357558.765625
-25.44,1683357558.78125
-36.35,1683357558.796875
-46.79,1683357558.8125
-57.43,1683357558.828125
-69.03,1683357558.84375
-82.33,1683357558.859375
-97.75,1683357558.875
-114.97,1683357558.890625
-132.53,1683357558.90625
-147.77,1683357558.921875
-157.24,1683357558.9375
-157.71,1683357558.953125
-147.32,1683357558.96875
-126.32,1683357558.984375
-97.19,1683357559.0
-63.77,1683357559.015625
-30.13,1683357559.03125
0.44,1683357559.046875
25.87,1683357559.0625
45.19,1683357559.078125
58.21,1683357559.09375
65.23,1683357559.109375
67.06,1683357559.125
65.03,1683357559.140625
60.92,1683357559.15625
56.65,1683357559.171875
53.70,1683357559.1875
52.88,1683357559.203125
54.18,1683357559.21875
57.04,1683357559.234375
60.67,1683357559.25
64.34,1683357559.265625
67.47,1683357559.28125
69.73,1683357559.296875
71.04,1683357559.3125
71.57,1683357559.328125
71.68,1683357559.34375
71.71,1683357559.359375
71.69,1683357559.375
71.21,1683357559.390625
69.49,1683357559.40625
65.74,1683357559.421875
59.61,1683357559.4375
51.39,1683357559.453125
41.88,1683357559.46875
31.96,1683357559.484375
22.05,1683357559.5
11.87,1683357559.515625
0.63,1683357559.53125
-12.54,1683357559.546875
-28.23,1683357559.5625
-46.47,1683357559.578125
-66.73,1683357559.59375
-88.01,1683357559.609375
-108.80,1683357559.625
-126.95,1683357559.640625
-139.90,1683357559.65625
-145.12,1683357559.671875
-140.84,1683357559.6875
-126.88,1683357559.703125
-104.84,1683357559.71875
-77.84,1683357559.734375
-49.53,1683357559.75
-23.02,1683357559.765625
-0.16,1683357559.78125
18.58,1683357559.796875
33.62,1683357559.8125
45.67,1683357559.828125
55.22,1683357559.84375
62.38,1683357559.859375
67.06,1683357559.875
69.24,1683357559.890625
69.06,1683357559.90625
66.98,1683357559.921875
63.53,1683357559.9375
59.28,1683357559.953125
54.64,1683357559.96875
49.80,1683357559.984375
44.85,1683357560.0
39.89,1683357560.015625
35.17,1683357560.03125
31.10,1683357560.046875
28.10,1683357560.0625
26.21,1683357560.078125
24.86,1683357560.09375
22.97,1683357560.109375
19.35,1683357560.125
13.30,1683357560.140625
5.06,1683357560.15625
-4.27,1683357560.171875
-13.26,1683357560.1875
-20.89,1683357560.203125
-27.00,1683357560.21875
-32.33,1683357560.234375
-38.09,1683357560.25
-45.33,1683357560.265625
-54.57,1683357560.28125
-65.67,1683357560.296875
-77.89,1683357560.3125
-89.86,1683357560.328125
-99.72,1683357560.34375
-105.25,1683357560.359375
-104.40,1683357560.375
-95.87,1683357560.390625
-79.67,1683357560.40625
-57.24,1683357560.421875
