1683531693.00,timestamp
-0.00,1683531693.0
-0.00,1683531693.015625
-0.00,1683531693.03125
-0.00,1683531693.046875
-0.00,1683531693.0625
-0.00,1683531693.078125
-0.00,1683531693.09375
-0.00,1683531693.109375
-0.00,1683531693.125
-0.00,1683531693.140625
0.00,1683531693.15625
0.01,1683531693.171875
0.01,1683531693.1875
-0.00,1683531693.203125
-0.03,1683531693.21875
-0.05,1683531693.234375
-0.05,1683531693.25
0.00,1683531693.265625
0.13,1683531693.28125
0.36,1683531693.296875
0.66,1683531693.3125
1.01,1683531693.328125
1.37,1683531693.34375
1.72,1683531693.359375
2.06,1683531693.375
2.40,1683531693.390625
2.79,1683531693.40625
3.24,1683531693.421875
3.80,1683531693.4375
4.42,1683531693.453125
5.06,1683531693.46875
5.66,1683531693.484375
6.20,1683531693.5
6.68,1683531693.515625
7.15,1683531693.53125
7.68,1683531693.546875
8.31,1683531693.5625
9.14,1683531693.578125
10.09,1683531693.59375
11.04,1683531693.609375
11.88,1683531693.625
12.56,1683531693.640625
13.14,1683531693.65625
13.76,1683531693.671875
14.65,1683531693.6875
15.96,1683531693.703125
17.91,1683531693.71875
20.32,1683531693.734375
22.90,1683531693.75
25.38,1683531693.765625
27.58,1683531693.78125
29.57,1683531693.796875
31.68,1683531693.8125
34.32,1683531693.828125
37.81,1683531693.84375
42.54,1683531693.859375
48.15,1683531693.875
54.10,1683531693.890625
59.83,1683531693.90625
64.97,1683531693.921875
69.58,1683531693.9375
74.14,1683531693.953125
79.34,1683531693.96875
85.71,1683531693.984375
93.76,1683531694.0
103.00,1683531694.015625
112.62,1683531694.03125
121.73,1683531694.046875
129.77,1683531694.0625
136.75,1683531694.078125
143.30,1683531694.09375
150.75,1683531694.109375
157.77,1683531694.125
166.64,1683531694.140625
177.95,1683531694.15625
191.79,1683531694.171875
206.97,1683531694.1875
220.57,1683531694.203125
228.25,1683531694.21875
225.36,1683531694.234375
208.53,1683531694.25
176.87,1683531694.265625
132.76,1683531694.28125
80.05,1683531694.296875
23.07,1683531694.3125
-34.94,1683531694.328125
-92.44,1683531694.34375
-149.16,1683531694.359375
-205.23,1683531694.375
-260.37,1683531694.390625
-313.74,1683531694.40625
-363.87,1683531694.421875
-409.83,1683531694.4375
-450.91,1683531694.453125
-486.50,1683531694.46875
-515.74,1683531694.484375
-537.23,1683531694.5
-549.22,1683531694.515625
-549.96,1683531694.53125
-538.37,1683531694.546875
-514.21,1683531694.5625
-478.67,1683531694.578125
-433.88,1683531694.59375
-382.45,1683531694.609375
-327.02,1683531694.625
-269.84,1683531694.640625
-212.63,1683531694.65625
-156.66,1683531694.671875
-102.95,1683531694.6875
-52.37,1683531694.703125
-5.90,1683531694.71875
35.58,1683531694.734375
71.43,1683531694.75
101.35,1683531694.765625
125.50,1683531694.78125
144.38,1683531694.796875
158.69,1683531694.8125
169.15,1683531694.828125
176.37,1683531694.84375
180.75,1683531694.859375
182.57,1683531694.875
182.07,1683531694.890625
179.51,1683531694.90625
175.23,1683531694.921875
169.65,1683531694.9375
163.18,1683531694.953125
156.15,1683531694.96875
148.81,1683531694.984375
141.30,1683531695.0
133.69,1683531695.015625
126.02,1683531695.03125
118.33,1683531695.046875
110.69,1683531695.0625
103.16,1683531695.078125
95.80,1683531695.09375
88.68,1683531695.109375
81.83,1683531695.125
75.25,1683531695.140625
68.95,1683531695.15625
62.95,1683531695.171875
57.25,1683531695.1875
51.86,1683531695.203125
46.78,1683531695.21875
42.03,1683531695.234375
37.59,1683531695.25
33.45,1683531695.265625
29.61,1683531695.28125
26.07,1683531695.296875
22.81,1683531695.3125
19.83,1683531695.328125
17.11,1683531695.34375
14.67,1683531695.359375
12.48,1683531695.375
10.54,1683531695.390625
8.83,1683531695.40625
7.35,1683531695.421875
6.07,1683531695.4375
4.97,1683531695.453125
4.05,1683531695.46875
3.27,1683531695.484375
2.62,1683531695.5
2.09,1683531695.515625
1.65,1683531695.53125
1.30,1683531695.546875
1.01,1683531695.5625
0.79,1683531695.578125
0.61,1683531695.59375
0.48,1683531695.609375
0.37,1683531695.625
0.29,1683531695.640625
0.24,1683531695.65625
0.20,1683531695.671875
0.18,1683531695.6875
0.17,1683531695.703125
0.17,1683531695.71875
0.18,1683531695.734375
0.20,1683531695.75
0.23,1683531695.765625
0.26,1683531695.78125
0.30,1683531695.796875
0.34,1683531695.8125
0.38,1683531695.828125
0.43,1683531695.84375
0.47,1683531695.859375
0.53,1683531695.875
0.57,1683531695.890625
0.63,1683531695.90625
0.68,1683531695.921875
0.74,1683531695.9375
0.80,1683531695.953125
0.87,1683531695.96875
0.95,1683531695.984375
1.03,1683531696.0
1.12,1683531696.015625
1.22,1683531696.03125
1.33,1683531696.046875
1.46,1683531696.0625
1.60,1683531696.078125
1.76,1683531696.09375
1.93,1683531696.109375
2.13,1683531696.125
2.35,1683531696.140625
2.59,1683531696.15625
2.86,1683531696.171875
3.15,1683531696.1875
3.48,1683531696.203125
3.84,1683531696.21875
4.22,1683531696.234375
4.65,1683531696.25
5.11,1683531696.265625
5.62,1683531696.28125
6.17,1683531696.296875
6.77,1683531696.3125
7.40,1683531696.328125
8.04,1683531696.34375
8.68,1683531696.359375
9.33,1683531696.375
10.01,1683531696.390625
10.74,1683531696.40625
11.55,1683531696.421875
12.45,1683531696.4375
13.42,1683531696.453125
14.47,1683531696.46875
15.56,1683531696.484375
16.67,1683531696.5
17.80,1683531696.515625
18.96,1683531696.53125
20.13,1683531696.546875
21.32,1683531696.5625
22.45,1683531696.578125
23.42,1683531696.59375
24.07,1683531696.609375
24.21,1683531696.625
23.68,1683531696.640625
22.36,1683531696.65625
20.24,1683531696.671875
17.37,1683531696.6875
13.88,1683531696.703125
9.86,1683531696.71875
5.45,1683531696.734375
0.72,1683531696.75
-4.24,1683531696.765625
-9.32,1683531696.78125
-14.31,1683531696.796875
-18.93,1683531696.8125
-22.86,1683531696.828125
-25.84,1683531696.84375
-27.75,1683531696.859375
-28.72,1683531696.875
-29.06,1683531696.890625
-29.17,1683531696.90625
-29.38,1683531696.921875
-29.84,1683531696.9375
-30.44,1683531696.953125
-30.89,1683531696.96875
-30.85,1683531696.984375
-30.18,1683531697.0
-29.03,1683531697.015625
-27.81,1683531697.03125
-27.05,1683531697.046875
-27.18,1683531697.0625
-28.29,1683531697.078125
-30.08,1683531697.09375
-32.01,1683531697.109375
-33.49,1683531697.125
-34.18,1683531697.140625
-34.08,1683531697.15625
-33.58,1683531697.171875
-33.21,1683531697.1875
-33.68,1683531697.203125
-35.59,1683531697.21875
-39.36,1683531697.234375
-44.87,1683531697.25
-51.11,1683531697.265625
-56.20,1683531697.28125
-57.72,1683531697.296875
-53.61,1683531697.3125
-43.17,1683531697.328125
-27.65,1683531697.34375
-9.98,1683531697.359375
6.30,1683531697.375
18.37,1683531697.390625
25.09,1683531697.40625
27.04,1683531697.421875
25.86,1683531697.4375
23.30,1683531697.453125
20.49,1683531697.46875
17.71,1683531697.484375
14.79,1683531697.5
11.45,1683531697.515625
7.60,1683531697.53125
3.30,1683531697.546875
-1.34,1683531697.5625
-6.08,1683531697.578125
-10.22,1683531697.59375
-12.67,1683531697.609375
-12.23,1683531697.625
-8.05,1683531697.640625
0.01,1683531697.65625
11.18,1683531697.671875
24.13,1683531697.6875
37.57,1683531697.703125
49.54,1683531697.71875
58.51,1683531697.734375
63.58,1683531697.75
64.40,1683531697.765625
61.05,1683531697.78125
53.92,1683531697.796875
43.75,1683531697.8125
31.67,1683531697.828125
19.03,1683531697.84375
7.08,1683531697.859375
-3.19,1683531697.875
-11.35,1683531697.890625
-17.51,1683531697.90625
-22.09,1683531697.921875
-25.57,1683531697.9375
-28.24,1683531697.953125
-30.31,1683531697.96875
-31.95,1683531697.984375
-33.46,1683531698.0
-35.17,1683531698.015625
-37.38,1683531698.03125
-40.32,1683531698.046875
-44.02,1683531698.0625
-48.31,1683531698.078125
-52.91,1683531698.09375
-57.53,1683531698.109375
-61.96,1683531698.125
-66.13,1683531698.140625
-69.90,1683531698.15625
-72.99,1683531698.171875
-74.94,1683531698.1875
-75.11,1683531698.203125
-72.92,1683531698.21875
-67.88,1683531698.234375
-59.86,1683531698.25
-49.03,1683531698.265625
-35.96,1683531698.28125
-21.58,1683531698.296875
-7.12,1683531698.3125
5.98,1683531698.328125
16.34,1683531698.34375
22.81,1683531698.359375
24.93,1683531698.375
23.03,1683531698.390625
18.41,1683531698.40625
13.17,1683531698.421875
9.88,1683531698.4375
10.96,1683531698.453125
18.04,1683531698.46875
31.51,1683531698.484375
50.27,1683531698.5
72.04,1683531698.515625
93.96,1683531698.53125
113.38,1683531698.546875
128.43,1683531698.5625
138.26,1683531698.578125
142.89,1683531698.59375
142.86,1683531698.609375
138.96,1683531698.625
131.98,1683531698.640625
122.77,1683531698.65625
112.12,1683531698.671875
100.79,1683531698.6875
89.43,1683531698.703125
78.51,1683531698.71875
68.30,1683531698.734375
58.89,1683531698.75
50.31,1683531698.765625
42.62,1683531698.78125
35.93,1683531698.796875
30.35,1683531698.8125
25.93,1683531698.828125
22.59,1683531698.84375
20.06,1683531698.859375
18.00,1683531698.875
15.97,1683531698.890625
13.59,1683531698.90625
10.67,1683531698.921875
7.17,1683531698.9375
3.24,1683531698.953125
-0.88,1683531698.96875
-4.98,1683531698.984375
-9.01,1683531699.0
-13.07,1683531699.015625
-17.36,1683531699.03125
-22.06,1683531699.046875
-27.17,1683531699.0625
-32.45,1683531699.078125
-37.49,1683531699.09375
-41.79,1683531699.109375
-44.99,1683531699.125
-47.07,1683531699.140625
-48.40,1683531699.15625
-49.72,1683531699.171875
-51.91,1683531699.1875
-55.66,1683531699.203125
-61.16,1683531699.21875
-67.80,1683531699.234375
-74.24,1683531699.25
-78.62,1683531699.265625
-79.18,1683531699.28125
-74.77,1683531699.296875
-65.27,1683531699.3125
-51.61,1683531699.328125
-35.45,1683531699.34375
-18.66,1683531699.359375
-2.88,1683531699.375
10.87,1683531699.390625
22.08,1683531699.40625
30.59,1683531699.421875
36.37,1683531699.4375
39.44,1683531699.453125
39.83,1683531699.46875
37.71,1683531699.484375
33.47,1683531699.5
27.66,1683531699.515625
21.04,1683531699.53125
14.48,1683531699.546875
8.87,1683531699.5625
5.00,1683531699.578125
3.30,1683531699.59375
3.68,1683531699.609375
5.44,1683531699.625
7.51,1683531699.640625
8.81,1683531699.65625
8.69,1683531699.671875
7.17,1683531699.6875
4.76,1683531699.703125
2.10,1683531699.71875
-0.54,1683531699.734375
-3.45,1683531699.75
-7.26,1683531699.765625
-12.47,1683531699.78125
-19.11,1683531699.796875
-26.57,1683531699.8125
-33.86,1683531699.828125
-40.15,1683531699.84375
-45.16,1683531699.859375
-49.53,1683531699.875
-54.62,1683531699.890625
-62.08,1683531699.90625
-73.35,1683531699.921875
-89.08,1683531699.9375
-108.73,1683531699.953125
-130.35,1683531699.96875
-150.65,1683531699.984375
-165.42,1683531700.0
-170.69,1683531700.015625
-163.98,1683531700.03125
-145.20,1683531700.046875
-116.96,1683531700.0625
-83.76,1683531700.078125
-50.75,1683531700.09375
-22.09,1683531700.109375
-0.06,1683531700.125
15.29,1683531700.140625
25.36,1683531700.15625
31.93,1683531700.171875
36.24,1683531700.1875
38.58,1683531700.203125
38.11,1683531700.21875
32.89,1683531700.234375
20.43,1683531700.25
-1.63,1683531700.265625
-34.04,1683531700.28125
-74.92,1683531700.296875
-119.20,1683531700.3125
-159.17,1683531700.328125
-186.18,1683531700.34375
-193.65,1683531700.359375
-179.50,1683531700.375
-146.40,1683531700.390625
-100.35,1683531700.40625
-47.21,1683531700.421875
9.42,1683531700.4375
68.59,1683531700.453125
130.32,1683531700.46875
193.42,1683531700.484375
252.70,1683531700.5
300.03,1683531700.515625
328.05,1683531700.53125
334.28,1683531700.546875
323.56,1683531700.5625
304.98,1683531700.578125
287.00,1683531700.59375
273.61,1683531700.609375
265.30,1683531700.625
260.33,1683531700.640625
258.21,1683531700.65625
261.26,1683531700.671875
272.52,1683531700.6875
293.20,1683531700.703125
318.45,1683531700.71875
337.97,1683531700.734375
340.80,1683531700.75
322.64,1683531700.765625
286.66,1683531700.78125
241.39,1683531700.796875
196.31,1683531700.8125
157.31,1683531700.828125
126.70,1683531700.84375
102.82,1683531700.859375
82.32,1683531700.875
52.94,1683531700.890625
11.56,1683531700.90625
-36.34,1683531700.921875
-80.83,1683531700.9375
-111.52,1683531700.953125
-132.73,1683531700.96875
-150.95,1683531700.984375
-171.95,1683531701.0
-199.04,1683531701.015625
-233.29,1683531701.03125
-272.88,1683531701.046875
-315.68,1683531701.0625
-359.59,1683531701.078125
-401.93,1683531701.09375
-439.21,1683531701.109375
-465.77,1683531701.125
-476.84,1683531701.140625
-470.50,1683531701.15625
-448.25,1683531701.171875
-412.95,1683531701.1875
-368.76,1683531701.203125
-319.81,1683531701.21875
-269.12,1683531701.234375
-218.63,1683531701.25
-168.10,1683531701.265625
-117.06,1683531701.28125
-65.44,1683531701.296875
-13.59,1683531701.3125
38.76,1683531701.328125
91.45,1683531701.34375
143.46,1683531701.359375
192.85,1683531701.375
237.08,1683531701.390625
274.72,1683531701.40625
305.16,1683531701.421875
328.93,1683531701.4375
347.51,1683531701.453125
363.18,1683531701.46875
377.55,1683531701.484375
390.44,1683531701.5
399.57,1683531701.515625
401.05,1683531701.53125
391.24,1683531701.546875
368.09,1683531701.5625
332.27,1683531701.578125
287.28,1683531701.59375
238.63,1683531701.609375
191.90,1683531701.625
150.98,1683531701.640625
117.11,1683531701.65625
89.00,1683531701.671875
63.57,1683531701.6875
36.89,1683531701.703125
5.43,1683531701.71875
-32.66,1683531701.734375
-76.15,1683531701.75
-120.37,1683531701.765625
-158.19,1683531701.78125
-182.65,1683531701.796875
-190.12,1683531701.8125
-182.65,1683531701.828125
-167.62,1683531701.84375
-155.11,1683531701.859375
-153.79,1683531701.875
-167.44,1683531701.890625
-193.61,1683531701.90625
-224.76,1683531701.921875
-251.18,1683531701.9375
-263.98,1683531701.953125
-257.47,1683531701.96875
-230.56,1683531701.984375
-187.08,1683531702.0
-135.30,1683531702.015625
-86.44,1683531702.03125
-52.19,1683531702.046875
-41.33,1683531702.0625
-56.80,1683531702.078125
-94.43,1683531702.09375
-144.09,1683531702.109375
-193.19,1683531702.125
-230.99,1683531702.140625
-251.77,1683531702.15625
-255.67,1683531702.171875
-246.89,1683531702.1875
-230.47,1683531702.203125
-209.48,1683531702.21875
-183.94,1683531702.234375
-151.84,1683531702.25
-111.42,1683531702.265625
-63.24,1683531702.28125
-10.71,1683531702.296875
40.98,1683531702.3125
86.95,1683531702.328125
124.31,1683531702.34375
152.62,1683531702.359375
173.21,1683531702.375
188.24,1683531702.390625
200.22,1683531702.40625
212.07,1683531702.421875
227.09,1683531702.4375
248.33,1683531702.453125
277.24,1683531702.46875
312.16,1683531702.484375
347.84,1683531702.5
376.58,1683531702.515625
390.73,1683531702.53125
385.35,1683531702.546875
359.98,1683531702.5625
318.46,1683531702.578125
267.20,1683531702.59375
212.94,1683531702.609375
160.93,1683531702.625
114.16,1683531702.640625
73.51,1683531702.65625
38.28,1683531702.671875
6.64,1683531702.6875
-24.12,1683531702.703125
-57.15,1683531702.71875
-95.27,1683531702.734375
-139.69,1683531702.75
-188.95,1683531702.765625
-238.46,1683531702.78125
-281.37,1683531702.796875
-310.61,1683531702.8125
-321.29,1683531702.828125
-312.51,1683531702.84375
-287.67,1683531702.859375
-253.14,1683531702.875
-215.99,1683531702.890625
-181.74,1683531702.90625
-153.24,1683531702.921875
-130.82,1683531702.9375
-113.50,1683531702.953125
-100.23,1683531702.96875
-90.65,1683531702.984375
-84.90,1683531703.0
-83.08,1683531703.015625
-84.59,1683531703.03125
-87.95,1683531703.046875
-91.28,1683531703.0625
-92.95,1683531703.078125
-92.32,1683531703.09375
-89.94,1683531703.109375
-87.17,1683531703.125
-85.33,1683531703.140625
-84.89,1683531703.15625
-85.06,1683531703.171875
-83.86,1683531703.1875
-78.87,1683531703.203125
-68.12,1683531703.21875
-50.95,1683531703.234375
-28.38,1683531703.25
-2.95,1683531703.265625
21.98,1683531703.28125
43.32,1683531703.296875
59.18,1683531703.3125
69.47,1683531703.328125
75.61,1683531703.34375
79.77,1683531703.359375
83.75,1683531703.375
88.13,1683531703.390625
92.09,1683531703.40625
93.84,1683531703.421875
91.54,1683531703.4375
84.04,1683531703.453125
71.38,1683531703.46875
54.71,1683531703.484375
36.12,1683531703.5
18.27,1683531703.515625
4.00,1683531703.53125
-4.12,1683531703.546875
-4.35,1683531703.5625
3.72,1683531703.578125
18.89,1683531703.59375
38.47,1683531703.609375
58.88,1683531703.625
76.46,1683531703.640625
88.35,1683531703.65625
93.00,1683531703.671875
90.42,1683531703.6875
81.94,1683531703.703125
69.81,1683531703.71875
56.61,1683531703.734375
44.68,1683531703.75
35.66,1683531703.765625
30.22,1683531703.78125
28.11,1683531703.796875
28.22,1683531703.8125
29.03,1683531703.828125
28.95,1683531703.84375
26.80,1683531703.859375
22.29,1683531703.875
16.20,1683531703.890625
10.18,1683531703.90625
6.08,1683531703.921875
5.13,1683531703.9375
7.25,1683531703.953125
11.13,1683531703.96875
14.75,1683531703.984375
16.35,1683531704.0
15.14,1683531704.015625
11.48,1683531704.03125
6.34,1683531704.046875
0.68,1683531704.0625
-5.18,1683531704.078125
-11.56,1683531704.09375
-19.17,1683531704.109375
-28.47,1683531704.125
-39.40,1683531704.140625
-51.19,1683531704.15625
-62.50,1683531704.171875
-71.58,1683531704.1875
-76.77,1683531704.203125
-76.80,1683531704.21875
-71.25,1683531704.234375
-60.67,1683531704.25
-46.44,1683531704.265625
-30.33,1683531704.28125
-14.07,1683531704.296875
1.04,1683531704.3125
14.13,1683531704.328125
24.65,1683531704.34375
32.02,1683531704.359375
35.60,1683531704.375
34.85,1683531704.390625
29.57,1683531704.40625
20.17,1683531704.421875
7.73,1683531704.4375
-6.20,1683531704.453125
-19.98,1683531704.46875
-32.33,1683531704.484375
-42.54,1683531704.5
-50.58,1683531704.515625
-56.91,1683531704.53125
-62.10,1683531704.546875
-66.55,1683531704.5625
-70.39,1683531704.578125
-73.45,1683531704.59375
-75.69,1683531704.609375
-77.51,1683531704.625
-79.96,1683531704.640625
-84.60,1683531704.65625
-92.90,1683531704.671875
-105.30,1683531704.6875
-120.42,1683531704.703125
-134.94,1683531704.71875
-144.19,1683531704.734375
-143.46,1683531704.75
-129.49,1683531704.765625
-101.59,1683531704.78125
-62.08,1683531704.796875
-15.81,1683531704.8125
30.87,1683531704.828125
71.56,1683531704.84375
101.17,1683531704.859375
116.95,1683531704.875
119.10,1683531704.890625
110.54,1683531704.90625
96.33,1683531704.921875
82.23,1683531704.9375
73.38,1683531704.953125
72.98,1683531704.96875
81.88,1683531704.984375
98.90,1683531705.0
121.78,1683531705.015625
148.36,1683531705.03125
177.25,1683531705.046875
207.92,1683531705.0625
239.87,1683531705.078125
271.62,1683531705.09375
300.10,1683531705.109375
320.92,1683531705.125
329.68,1683531705.140625
323.68,1683531705.15625
303.11,1683531705.171875
270.87,1683531705.1875
231.37,1683531705.203125
188.52,1683531705.21875
144.17,1683531705.234375
97.66,1683531705.25
46.92,1683531705.265625
-9.46,1683531705.28125
-70.04,1683531705.296875
-129.67,1683531705.3125
-180.58,1683531705.328125
-214.92,1683531705.34375
-228.05,1683531705.359375
-220.44,1683531705.375
-197.55,1683531705.390625
-167.65,1683531705.40625
-138.66,1683531705.421875
-115.67,1683531705.4375
-100.15,1683531705.453125
-90.97,1683531705.46875
-86.18,1683531705.484375
-84.39,1683531705.5
-85.13,1683531705.515625
-88.14,1683531705.53125
-92.61,1683531705.546875
-96.80,1683531705.5625
-98.64,1683531705.578125
-96.59,1683531705.59375
-90.38,1683531705.609375
-81.07,1683531705.625
-70.51,1683531705.640625
-60.35,1683531705.65625
-51.26,1683531705.671875
-42.81,1683531705.6875
-33.98,1683531705.703125
-24.01,1683531705.71875
-12.95,1683531705.734375
-1.58,1683531705.75
9.29,1683531705.765625
19.62,1683531705.78125
30.66,1683531705.796875
44.53,1683531705.8125
63.33,1683531705.828125
88.04,1683531705.84375
118.01,1683531705.859375
151.17,1683531705.875
184.73,1683531705.890625
216.16,1683531705.90625
243.72,1683531705.921875
266.75,1683531705.9375
285.35,1683531705.953125
299.97,1683531705.96875
311.07,1683531705.984375
319.05,1683531706.0
324.59,1683531706.015625
329.10,1683531706.03125
334.90,1683531706.046875
344.54,1683531706.0625
359.60,1683531706.078125
379.41,1683531706.09375
400.87,1683531706.109375
419.52,1683531706.125
431.64,1683531706.140625
435.94,1683531706.15625
434.05,1683531706.171875
429.26,1683531706.1875
424.45,1683531706.203125
420.50,1683531706.21875
416.04,1683531706.234375
408.66,1683531706.25
396.55,1683531706.265625
379.51,1683531706.28125
358.70,1683531706.296875
335.63,1683531706.3125
310.97,1683531706.328125
284.20,1683531706.34375
254.06,1683531706.359375
219.53,1683531706.375
180.48,1683531706.390625
137.90,1683531706.40625
93.64,1683531706.421875
49.72,1683531706.4375
7.88,1683531706.453125
-30.75,1683531706.46875
-65.60,1683531706.484375
-96.50,1683531706.5
-123.34,1683531706.515625
-145.99,1683531706.53125
-164.15,1683531706.546875
-177.65,1683531706.5625
-186.54,1683531706.578125
-191.26,1683531706.59375
-192.62,1683531706.609375
-191.64,1683531706.625
-189.29,1683531706.640625
-186.29,1683531706.65625
-183.01,1683531706.671875
-179.49,1683531706.6875
-175.59,1683531706.703125
-171.20,1683531706.71875
-166.37,1683531706.734375
-161.37,1683531706.75
-156.57,1683531706.765625
-152.36,1683531706.78125
-148.97,1683531706.796875
-146.39,1683531706.8125
-144.37,1683531706.828125
-142.55,1683531706.84375
-140.59,1683531706.859375
-138.37,1683531706.875
-136.03,1683531706.890625
-134.00,1683531706.90625
-132.81,1683531706.921875
-132.89,1683531706.9375
-134.36,1683531706.953125
-136.99,1683531706.96875
-140.21,1683531706.984375
-143.46,1683531707.0
-146.39,1683531707.015625
-149.20,1683531707.03125
-152.57,1683531707.046875
-157.45,1683531707.0625
-164.64,1683531707.078125
-174.38,1683531707.09375
-186.21,1683531707.109375
-199.08,1683531707.125
-211.78,1683531707.140625
-223.62,1683531707.15625
-234.76,1683531707.171875
-246.27,1683531707.1875
-259.69,1683531707.203125
-276.37,1683531707.21875
-296.78,1683531707.234375
-320.28,1683531707.25
-345.47,1683531707.265625
-370.76,1683531707.28125
-395.12,1683531707.296875
-418.53,1683531707.3125
-441.93,1683531707.328125
-466.90,1683531707.34375
-495.41,1683531707.359375
-529.59,1683531707.375
-571.24,1683531707.390625
-620.74,1683531707.40625
-675.83,1683531707.421875
-730.71,1683531707.4375
-776.84,1683531707.453125
-805.05,1683531707.46875
-808.87,1683531707.484375
-786.99,1683531707.5
-743.79,1683531707.515625
-687.45,1683531707.53125
-626.74,1683531707.546875
-568.08,1683531707.5625
-514.34,1683531707.578125
-465.64,1683531707.59375
-421.24,1683531707.609375
-380.95,1683531707.625
-345.44,1683531707.640625
-315.42,1683531707.65625
-290.68,1683531707.671875
-269.79,1683531707.6875
-250.56,1683531707.703125
-231.24,1683531707.71875
-211.25,1683531707.734375
-191.26,1683531707.75
-172.78,1683531707.765625
-157.17,1683531707.78125
-144.88,1683531707.796875
-135.17,1683531707.8125
-126.38,1683531707.828125
-116.66,1683531707.84375
-104.74,1683531707.859375
-90.41,1683531707.875
-74.57,1683531707.890625
-58.75,1683531707.90625
-44.39,1683531707.921875
-32.25,1683531707.9375
-22.14,1683531707.953125
-13.07,1683531707.96875
-3.72,1683531707.984375
6.88,1683531708.0
19.01,1683531708.015625
32.13,1683531708.03125
45.12,1683531708.046875
56.85,1683531708.0625
66.66,1683531708.078125
74.63,1683531708.09375
81.57,1683531708.109375
88.61,1683531708.125
96.76,1683531708.140625
106.44,1683531708.15625
117.30,1683531708.171875
128.38,1683531708.1875
138.50,1683531708.203125
146.73,1683531708.21875
152.79,1683531708.234375
157.14,1683531708.25
160.97,1683531708.265625
165.87,1683531708.28125
173.30,1683531708.296875
183.95,1683531708.3125
197.18,1683531708.328125
210.76,1683531708.34375
220.93,1683531708.359375
223.21,1683531708.375
213.55,1683531708.390625
189.69,1683531708.40625
152.13,1683531708.421875
104.42,1683531708.4375
52.39,1683531708.453125
2.72,1683531708.46875
-38.76,1683531708.484375
-68.39,1683531708.5
-85.15,1683531708.515625
-90.41,1683531708.53125
-86.89,1683531708.546875
-77.72,1683531708.5625
-65.63,1683531708.578125
-52.71,1683531708.59375
-40.37,1683531708.609375
-29.51,1683531708.625
-20.56,1683531708.640625
-13.44,1683531708.65625
-7.48,1683531708.671875
-1.68,1683531708.6875
5.00,1683531708.703125
13.17,1683531708.71875
22.76,1683531708.734375
33.01,1683531708.75
42.84,1683531708.765625
51.42,1683531708.78125
58.52,1683531708.796875
64.70,1683531708.8125
70.98,1683531708.828125
78.42,1683531708.84375
87.55,1683531708.859375
98.16,1683531708.875
109.43,1683531708.890625
120.33,1683531708.90625
130.17,1683531708.921875
138.99,1683531708.9375
147.49,1683531708.953125
156.75,1683531708.96875
167.66,1683531708.984375
180.53,1683531709.0
194.91,1683531709.015625
209.92,1683531709.03125
224.61,1683531709.046875
238.50,1683531709.0625
251.75,1683531709.078125
265.06,1683531709.09375
279.49,1683531709.109375
296.23,1683531709.125
316.33,1683531709.140625
340.37,1683531709.15625
367.82,1683531709.171875
396.59,1683531709.1875
422.91,1683531709.203125
442.15,1683531709.21875
450.23,1683531709.234375
445.17,1683531709.25
427.87,1683531709.265625
401.67,1683531709.28125
370.92,1683531709.296875
339.33,1683531709.3125
309.03,1683531709.328125
280.66,1683531709.34375
254.32,1683531709.359375
230.35,1683531709.375
209.58,1683531709.390625
192.79,1683531709.40625
179.90,1683531709.421875
169.61,1683531709.4375
159.85,1683531709.453125
148.65,1683531709.46875
135.11,1683531709.484375
119.66,1683531709.5
103.77,1683531709.515625
89.27,1683531709.53125
77.53,1683531709.546875
69.08,1683531709.5625
63.60,1683531709.578125
60.09,1683531709.59375
57.29,1683531709.609375
54.06,1683531709.625
49.72,1683531709.640625
44.33,1683531709.65625
38.75,1683531709.671875
34.39,1683531709.6875
32.80,1683531709.703125
35.10,1683531709.71875
41.58,1683531709.734375
51.70,1683531709.75
64.34,1683531709.765625
78.39,1683531709.78125
93.08,1683531709.796875
108.00,1683531709.8125
122.64,1683531709.828125
135.93,1683531709.84375
146.09,1683531709.859375
150.92,1683531709.875
148.65,1683531709.890625
138.83,1683531709.90625
122.89,1683531709.921875
103.96,1683531709.9375
86.02,1683531709.953125
72.63,1683531709.96875
65.90,1683531709.984375
65.94,1683531710.0
70.98,1683531710.015625
78.20,1683531710.03125
84.63,1683531710.046875
88.20,1683531710.0625
88.43,1683531710.078125
86.59,1683531710.09375
85.23,1683531710.109375
87.09,1683531710.125
93.69,1683531710.140625
104.28,1683531710.15625
115.48,1683531710.171875
122.06,1683531710.1875
118.44,1683531710.203125
100.41,1683531710.21875
66.55,1683531710.234375
18.81,1683531710.25
-37.87,1683531710.265625
-96.88,1683531710.28125
-151.67,1683531710.296875
-197.51,1683531710.3125
-232.42,1683531710.328125
-257.13,1683531710.34375
-273.97,1683531710.359375
-285.30,1683531710.375
-292.34,1683531710.390625
-294.79,1683531710.40625
-291.49,1683531710.421875
-281.34,1683531710.4375
-264.08,1683531710.453125
-240.27,1683531710.46875
-210.73,1683531710.484375
-176.03,1683531710.5
-136.41,1683531710.515625
-92.44,1683531710.53125
-45.95,1683531710.546875
-0.59,1683531710.5625
38.56,1683531710.578125
66.27,1683531710.59375
78.85,1683531710.609375
75.66,1683531710.625
59.56,1683531710.640625
36.26,1683531710.65625
12.59,1683531710.671875
-5.38,1683531710.6875
-13.94,1683531710.703125
-12.28,1683531710.71875
-2.17,1683531710.734375
12.96,1683531710.75
29.12,1683531710.765625
42.83,1683531710.78125
51.82,1683531710.796875
55.71,1683531710.8125
55.97,1683531710.828125
55.33,1683531710.84375
56.48,1683531710.859375
60.53,1683531710.875
66.29,1683531710.890625
70.77,1683531710.90625
70.93,1683531710.921875
65.77,1683531710.9375
57.32,1683531710.953125
50.07,1683531710.96875
48.83,1683531710.984375
56.33,1683531711.0
71.67,1683531711.015625
90.42,1683531711.03125
105.94,1683531711.046875
111.41,1683531711.0625
101.76,1683531711.078125
75.23,1683531711.09375
34.31,1683531711.109375
-14.03,1683531711.125
-59.51,1683531711.140625
-90.88,1683531711.15625
-99.50,1683531711.171875
-82.42,1683531711.1875
-43.71,1683531711.203125
6.87,1683531711.21875
57.47,1683531711.234375
98.21,1683531711.25
123.90,1683531711.265625
134.42,1683531711.28125
133.00,1683531711.296875
123.61,1683531711.3125
109.10,1683531711.328125
90.84,1683531711.34375
69.53,1683531711.359375
46.59,1683531711.375
24.85,1683531711.390625
8.21,1683531711.40625
0.29,1683531711.421875
2.73,1683531711.4375
13.89,1683531711.453125
28.95,1683531711.46875
41.43,1683531711.484375
45.75,1683531711.5
39.59,1683531711.515625
24.90,1683531711.53125
6.75,1683531711.546875
-9.37,1683531711.5625
-20.46,1683531711.578125
-27.51,1683531711.59375
-34.82,1683531711.609375
-47.50,1683531711.625
-68.71,1683531711.640625
-98.08,1683531711.65625
-132.12,1683531711.671875
-165.97,1683531711.6875
-195.67,1683531711.703125
-219.25,1683531711.71875
-236.61,1683531711.734375
-248.51,1683531711.75
-255.61,1683531711.765625
-258.09,1683531711.78125
-255.84,1683531711.796875
-248.76,1683531711.8125
-236.79,1683531711.828125
-219.60,1683531711.84375
-196.32,1683531711.859375
-165.79,1683531711.875
-127.21,1683531711.890625
-80.97,1683531711.90625
-29.18,1683531711.921875
24.64,1683531711.9375
76.38,1683531711.953125
122.34,1683531711.96875
159.91,1683531711.984375
187.72,1683531712.0
205.28,1683531712.015625
212.73,1683531712.03125
210.83,1683531712.046875
201.23,1683531712.0625
186.59,1683531712.078125
170.31,1683531712.09375
155.55,1683531712.109375
144.16,1683531712.125
136.15,1683531712.140625
129.80,1683531712.15625
122.67,1683531712.171875
112.68,1683531712.1875
98.82,1683531712.203125
81.22,1683531712.21875
60.57,1683531712.234375
37.66,1683531712.25
13.01,1683531712.265625
-12.90,1683531712.28125
-39.43,1683531712.296875
-65.60,1683531712.3125
-90.27,1683531712.328125
-112.45,1683531712.34375
-131.35,1683531712.359375
-146.30,1683531712.375
-156.43,1683531712.390625
-160.75,1683531712.40625
-158.41,1683531712.421875
-149.38,1683531712.4375
-134.88,1683531712.453125
-117.50,1683531712.46875
-100.65,1683531712.484375
-87.65,1683531712.5
-80.82,1683531712.515625
-80.73,1683531712.53125
-86.10,1683531712.546875
-94.18,1683531712.5625
-101.75,1683531712.578125
-106.04,1683531712.59375
-105.52,1683531712.609375
-100.24,1683531712.625
-91.50,1683531712.640625
-81.25,1683531712.65625
-71.21,1683531712.671875
-62.51,1683531712.6875
-55.54,1683531712.703125
-50.22,1683531712.71875
-46.22,1683531712.734375
-43.08,1683531712.75
-40.05,1683531712.765625
-36.01,1683531712.78125
-29.50,1683531712.796875
-19.07,1683531712.8125
-3.71,1683531712.828125
16.83,1683531712.84375
42.00,1683531712.859375
70.46,1683531712.875
100.28,1683531712.890625
128.96,1683531712.90625
153.61,1683531712.921875
171.38,1683531712.9375
180.10,1683531712.953125
178.94,1683531712.96875
168.82,1683531712.984375
152.14,1683531713.0
131.92,1683531713.015625
110.73,1683531713.03125
90.05,1683531713.046875
70.26,1683531713.0625
51.26,1683531713.078125
33.13,1683531713.09375
16.57,1683531713.109375
2.50,1683531713.125
-8.51,1683531713.140625
-16.87,1683531713.15625
-24.02,1683531713.171875
-31.87,1683531713.1875
-41.96,1683531713.203125
-54.74,1683531713.21875
-69.50,1683531713.234375
-84.77,1683531713.25
-98.90,1683531713.265625
-110.59,1683531713.28125
-118.96,1683531713.296875
-123.36,1683531713.3125
-123.23,1683531713.328125
-118.09,1683531713.34375
-107.83,1683531713.359375
-93.09,1683531713.375
-75.36,1683531713.390625
-56.84,1683531713.40625
-39.96,1683531713.421875
-26.83,1683531713.4375
-18.70,1683531713.453125
-15.84,1683531713.46875
-17.58,1683531713.484375
-22.59,1683531713.5
-29.37,1683531713.515625
-36.57,1683531713.53125
-43.24,1683531713.546875
-48.82,1683531713.5625
-53.04,1683531713.578125
-55.92,1683531713.59375
-57.68,1683531713.609375
-58.77,1683531713.625
-59.73,1683531713.640625
-61.03,1683531713.65625
-62.76,1683531713.671875
-64.52,1683531713.6875
-65.48,1683531713.703125
-64.85,1683531713.71875
-62.26,1683531713.734375
-58.32,1683531713.75
-54.62,1683531713.765625
-53.40,1683531713.78125
-56.54,1683531713.796875
-64.50,1683531713.8125
-75.20,1683531713.828125
-83.89,1683531713.84375
-84.23,1683531713.859375
-70.57,1683531713.875
-40.73,1683531713.890625
2.27,1683531713.90625
50.32,1683531713.921875
92.38,1683531713.9375
117.62,1683531713.953125
118.75,1683531713.96875
93.97,1683531713.984375
47.36,1683531714.0
-12.18,1683531714.015625
-73.29,1683531714.03125
-124.76,1683531714.046875
-158.12,1683531714.0625
-169.55,1683531714.078125
-160.22,1683531714.09375
-135.20,1683531714.109375
-101.10,1683531714.125
-63.42,1683531714.140625
-24.79,1683531714.15625
14.85,1683531714.171875
56.53,1683531714.1875
99.95,1683531714.203125
142.23,1683531714.21875
178.46,1683531714.234375
203.84,1683531714.25
215.87,1683531714.265625
215.48,1683531714.28125
206.61,1683531714.296875
194.34,1683531714.3125
182.89,1683531714.328125
174.33,1683531714.34375
168.52,1683531714.359375
164.14,1683531714.375
159.79,1683531714.390625
154.73,1683531714.40625
148.89,1683531714.421875
142.43,1683531714.4375
135.29,1683531714.453125
127.00,1683531714.46875
116.99,1683531714.484375
104.90,1683531714.5
90.92,1683531714.515625
75.88,1683531714.53125
60.96,1683531714.546875
47.40,1683531714.5625
35.92,1683531714.578125
26.42,1683531714.59375
17.90,1683531714.609375
8.88,1683531714.625
-2.02,1683531714.640625
-15.39,1683531714.65625
-30.67,1683531714.671875
-46.16,1683531714.6875
-59.51,1683531714.703125
-68.35,1683531714.71875
-71.03,1683531714.734375
-67.04,1683531714.75
-57.14,1683531714.765625
-43.04,1683531714.78125
-26.95,1683531714.796875
-11.04,1683531714.8125
2.88,1683531714.828125
13.62,1683531714.84375
20.50,1683531714.859375
23.38,1683531714.875
22.59,1683531714.890625
18.96,1683531714.90625
13.74,1683531714.921875
8.43,1683531714.9375
4.36,1683531714.953125
2.32,1683531714.96875
2.34,1683531714.984375
3.80,1683531715.0
5.76,1683531715.015625
7.47,1683531715.03125
8.64,1683531715.046875
9.46,1683531715.0625
10.35,1683531715.078125
11.61,1683531715.09375
13.15,1683531715.109375
14.52,1683531715.125
15.12,1683531715.140625
14.58,1683531715.15625
12.96,1683531715.171875
10.70,1683531715.1875
8.45,1683531715.203125
6.70,1683531715.21875
5.57,1683531715.234375
4.75,1683531715.25
3.64,1683531715.265625
1.62,1683531715.28125
-1.79,1683531715.296875
-6.74,1683531715.3125
-12.96,1683531715.328125
-19.74,1683531715.34375
-25.98,1683531715.359375
-30.35,1683531715.375
-31.62,1683531715.390625
-29.05,1683531715.40625
-22.76,1683531715.421875
-13.83,1683531715.4375
-3.98,1683531715.453125
4.93,1683531715.46875
11.56,1683531715.484375
15.45,1683531715.5
17.05,1683531715.515625
17.33,1683531715.53125
17.22,1683531715.546875
17.19,1683531715.5625
17.10,1683531715.578125
16.48,1683531715.59375
14.86,1683531715.609375
12.23,1683531715.625
9.06,1683531715.640625
6.16,1683531715.65625
4.29,1683531715.671875
3.88,1683531715.6875
4.91,1683531715.703125
6.97,1683531715.71875
9.54,1683531715.734375
12.14,1683531715.75
14.46,1683531715.765625
16.23,1683531715.78125
17.22,1683531715.796875
17.21,1683531715.8125
16.08,1683531715.828125
13.84,1683531715.84375
10.76,1683531715.859375
7.24,1683531715.875
3.62,1683531715.890625
0.12,1683531715.90625
-3.30,1683531715.921875
-6.94,1683531715.9375
-11.19,1683531715.953125
-16.36,1683531715.96875
-22.44,1683531715.984375
-28.94,1683531716.0
-34.88,1683531716.015625
-38.97,1683531716.03125
-40.01,1683531716.046875
-37.31,1683531716.0625
-30.90,1683531716.078125
-21.63,1683531716.09375
-10.78,1683531716.109375
0.25,1683531716.125
10.36,1683531716.140625
18.79,1683531716.15625
25.06,1683531716.171875
28.84,1683531716.1875
29.87,1683531716.203125
28.12,1683531716.21875
23.96,1683531716.234375
18.23,1683531716.25
12.03,1683531716.265625
6.41,1683531716.28125
2.01,1683531716.296875
-1.05,1683531716.3125
-2.95,1683531716.328125
-4.00,1683531716.34375
-4.39,1683531716.359375
-4.25,1683531716.375
-3.85,1683531716.390625
-3.61,1683531716.40625
-3.95,1683531716.421875
-5.07,1683531716.4375
-6.77,1683531716.453125
-8.53,1683531716.46875
-9.90,1683531716.484375
-10.73,1683531716.5
-11.35,1683531716.515625
-12.35,1683531716.53125
-14.33,1683531716.546875
-17.59,1683531716.5625
-22.01,1683531716.578125
-27.19,1683531716.59375
-32.51,1683531716.609375
-37.27,1683531716.625
-40.63,1683531716.640625
-41.78,1683531716.65625
-40.02,1683531716.671875
-35.02,1683531716.6875
-27.05,1683531716.703125
-16.96,1683531716.71875
-5.98,1683531716.734375
4.62,1683531716.75
13.84,1683531716.765625
21.07,1683531716.78125
26.08,1683531716.796875
28.86,1683531716.8125
29.46,1683531716.828125
27.97,1683531716.84375
24.57,1683531716.859375
19.73,1683531716.875
14.21,1683531716.890625
8.97,1683531716.90625
4.93,1683531716.921875
2.70,1683531716.9375
2.39,1683531716.953125
3.65,1683531716.96875
5.89,1683531716.984375
8.44,1683531717.0
10.73,1683531717.015625
12.35,1683531717.03125
12.96,1683531717.046875
12.36,1683531717.0625
10.45,1683531717.078125
7.33,1683531717.09375
3.14,1683531717.109375
-1.92,1683531717.125
-7.84,1683531717.140625
-14.70,1683531717.15625
-22.58,1683531717.171875
-31.16,1683531717.1875
-39.57,1683531717.203125
-46.36,1683531717.21875
-49.86,1683531717.234375
-48.85,1683531717.25
-43.06,1683531717.265625
-33.46,1683531717.28125
-21.98,1683531717.296875
-10.83,1683531717.3125
-1.77,1683531717.328125
4.41,1683531717.34375
7.97,1683531717.359375
9.88,1683531717.375
11.25,1683531717.390625
12.85,1683531717.40625
14.85,1683531717.421875
16.88,1683531717.4375
18.27,1683531717.453125
18.39,1683531717.46875
16.98,1683531717.484375
14.32,1683531717.5
11.17,1683531717.515625
8.52,1683531717.53125
7.18,1683531717.546875
7.44,1683531717.5625
9.02,1683531717.578125
11.18,1683531717.59375
13.15,1683531717.609375
14.37,1683531717.625
14.71,1683531717.640625
14.25,1683531717.65625
13.07,1683531717.671875
11.11,1683531717.6875
8.18,1683531717.703125
4.17,1683531717.71875
-0.85,1683531717.734375
-6.54,1683531717.75
-12.52,1683531717.765625
-18.54,1683531717.78125
-24.42,1683531717.796875
-29.98,1683531717.8125
-34.75,1683531717.828125
-37.98,1683531717.84375
-38.72,1683531717.859375
-36.27,1683531717.875
-30.48,1683531717.890625
-21.93,1683531717.90625
-11.77,1683531717.921875
-1.40,1683531717.9375
7.94,1683531717.953125
15.41,1683531717.96875
20.64,1683531717.984375
23.63,1683531718.0
24.58,1683531718.015625
23.78,1683531718.03125
21.59,1683531718.046875
18.38,1683531718.0625
14.55,1683531718.078125
10.57,1683531718.09375
6.93,1683531718.109375
4.08,1683531718.125
2.36,1683531718.140625
1.85,1683531718.15625
2.35,1683531718.171875
3.47,1683531718.1875
4.68,1683531718.203125
5.57,1683531718.21875
5.85,1683531718.234375
5.52,1683531718.25
4.71,1683531718.265625
3.64,1683531718.28125
2.44,1683531718.296875
1.05,1683531718.3125
-0.67,1683531718.328125
-2.96,1683531718.34375
-6.09,1683531718.359375
-10.26,1683531718.375
-15.57,1683531718.390625
-21.96,1683531718.40625
-29.13,1683531718.421875
-36.45,1683531718.4375
-42.96,1683531718.453125
-47.47,1683531718.46875
-48.87,1683531718.484375
-46.43,1683531718.5
-40.07,1683531718.515625
-30.49,1683531718.53125
-18.98,1683531718.546875
-7.10,1683531718.5625
3.69,1683531718.578125
12.30,1683531718.59375
18.22,1683531718.609375
21.45,1683531718.625
22.42,1683531718.640625
21.75,1683531718.65625
19.98,1683531718.671875
17.54,1683531718.6875
14.60,1683531718.703125
11.33,1683531718.71875
7.93,1683531718.734375
4.83,1683531718.75
2.46,1683531718.765625
1.16,1683531718.78125
1.00,1683531718.796875
1.67,1683531718.8125
2.75,1683531718.828125
3.85,1683531718.84375
4.77,1683531718.859375
5.44,1683531718.875
5.80,1683531718.890625
5.67,1683531718.90625
4.76,1683531718.921875
2.86,1683531718.9375
0.01,1683531718.953125
-3.47,1683531718.96875
-7.11,1683531718.984375
-10.54,1683531719.0
-13.69,1683531719.015625
-16.83,1683531719.03125
-20.39,1683531719.046875
-24.69,1683531719.0625
-29.69,1683531719.078125
-34.87,1683531719.09375
-39.33,1683531719.109375
-41.96,1683531719.125
-41.77,1683531719.140625
-38.19,1683531719.15625
-31.25,1683531719.171875
-21.66,1683531719.1875
-10.65,1683531719.203125
0.33,1683531719.21875
9.95,1683531719.234375
17.31,1683531719.25
22.07,1683531719.265625
24.34,1683531719.28125
24.53,1683531719.296875
23.12,1683531719.3125
20.52,1683531719.328125
17.07,1683531719.34375
13.07,1683531719.359375
8.93,1683531719.375
5.16,1683531719.390625
2.33,1683531719.40625
0.93,1683531719.421875
1.15,1683531719.4375
2.78,1683531719.453125
5.29,1683531719.46875
7.96,1683531719.484375
10.10,1683531719.5
11.23,1683531719.515625
11.17,1683531719.53125
10.00,1683531719.546875
7.97,1683531719.5625
5.35,1683531719.578125
2.36,1683531719.59375
-0.82,1683531719.609375
-4.09,1683531719.625
-7.37,1683531719.640625
-10.64,1683531719.65625
-14.00,1683531719.671875
-17.66,1683531719.6875
-21.84,1683531719.703125
-26.57,1683531719.71875
-31.48,1683531719.734375
-35.66,1683531719.75
-37.89,1683531719.765625
-36.93,1683531719.78125
-32.06,1683531719.796875
-23.44,1683531719.8125
-12.14,1683531719.828125
0.15,1683531719.84375
11.64,1683531719.859375
20.93,1683531719.875
27.31,1683531719.890625
30.72,1683531719.90625
31.56,1683531719.921875
30.37,1683531719.9375
27.66,1683531719.953125
23.93,1683531719.96875
19.66,1683531719.984375
15.40,1683531720.0
11.73,1683531720.015625
9.08,1683531720.03125
7.61,1683531720.046875
7.19,1683531720.0625
7.44,1683531720.078125
7.93,1683531720.09375
8.28,1683531720.109375
8.36,1683531720.125
8.18,1683531720.140625
7.86,1683531720.15625
7.42,1683531720.171875
6.80,1683531720.1875
5.78,1683531720.203125
4.11,1683531720.21875
1.63,1683531720.234375
-1.59,1683531720.25
-5.27,1683531720.265625
-8.94,1683531720.28125
-12.18,1683531720.296875
-14.80,1683531720.3125
-16.90,1683531720.328125
-18.90,1683531720.34375
-21.30,1683531720.359375
-24.56,1683531720.375
-28.83,1683531720.390625
-33.83,1683531720.40625
-38.86,1683531720.421875
-42.86,1683531720.4375
-44.67,1683531720.453125
-43.36,1683531720.46875
-38.47,1683531720.484375
-30.27,1683531720.5
-19.72,1683531720.515625
-8.20,1683531720.53125
2.87,1683531720.546875
12.38,1683531720.5625
19.65,1683531720.578125
24.51,1683531720.59375
27.06,1683531720.609375
27.53,1683531720.625
26.19,1683531720.640625
23.39,1683531720.65625
19.60,1683531720.671875
15.40,1683531720.6875
11.42,1683531720.703125
8.19,1683531720.71875
5.97,1683531720.734375
4.69,1683531720.75
4.06,1683531720.765625
3.69,1683531720.78125
3.38,1683531720.796875
3.15,1683531720.8125
3.19,1683531720.828125
3.75,1683531720.84375
4.82,1683531720.859375
6.11,1683531720.875
7.01,1683531720.890625
6.88,1683531720.90625
5.28,1683531720.921875
2.19,1683531720.9375
-1.98,1683531720.953125
-6.48,1683531720.96875
-10.56,1683531720.984375
-13.66,1683531721.0
-15.64,1683531721.015625
-16.85,1683531721.03125
-17.94,1683531721.046875
-19.72,1683531721.0625
-22.82,1683531721.078125
-27.50,1683531721.09375
-33.44,1683531721.109375
-39.73,1683531721.125
-45.05,1683531721.140625
-47.97,1683531721.15625
-47.32,1683531721.171875
-42.56,1683531721.1875
-34.02,1683531721.203125
-22.76,1683531721.21875
-10.36,1683531721.234375
1.57,1683531721.25
11.71,1683531721.265625
19.33,1683531721.28125
24.29,1683531721.296875
26.90,1683531721.3125
27.68,1683531721.328125
27.20,1683531721.34375
25.83,1683531721.359375
23.84,1683531721.375
21.39,1683531721.390625
18.66,1683531721.40625
15.92,1683531721.421875
13.50,1683531721.4375
11.65,1683531721.453125
10.44,1683531721.46875
9.70,1683531721.484375
9.12,1683531721.5
8.44,1683531721.515625
7.49,1683531721.53125
6.31,1683531721.546875
4.99,1683531721.5625
3.60,1683531721.578125
2.08,1683531721.59375
0.30,1683531721.609375
-1.90,1683531721.625
-4.56,1683531721.640625
-7.58,1683531721.65625
-10.75,1683531721.671875
-13.83,1683531721.6875
-16.62,1683531721.703125
-19.04,1683531721.71875
-21.20,1683531721.734375
-23.43,1683531721.75
-26.19,1683531721.765625
-29.94,1683531721.78125
-34.85,1683531721.796875
-40.58,1683531721.8125
-46.17,1683531721.828125
-50.24,1683531721.84375
-51.38,1683531721.859375
-48.68,1683531721.875
-42.04,1683531721.890625
-32.26,1683531721.90625
-20.70,1683531721.921875
-8.90,1683531721.9375
1.84,1683531721.953125
10.67,1683531721.96875
17.22,1683531721.984375
21.47,1683531722.0
23.61,1683531722.015625
23.95,1683531722.03125
22.94,1683531722.046875
21.02,1683531722.0625
18.62,1683531722.078125
16.07,1683531722.09375
13.50,1683531722.109375
11.02,1683531722.125
8.66,1683531722.140625
6.50,1683531722.15625
4.65,1683531722.171875
3.22,1683531722.1875
2.26,1683531722.203125
1.83,1683531722.21875
1.89,1683531722.234375
2.39,1683531722.25
3.21,1683531722.265625
4.13,1683531722.28125
4.81,1683531722.296875
4.93,1683531722.3125
4.25,1683531722.328125
2.78,1683531722.34375
0.65,1683531722.359375
-1.84,1683531722.375
-4.49,1683531722.390625
-7.25,1683531722.40625
-10.26,1683531722.421875
-13.83,1683531722.4375
-18.26,1683531722.453125
-23.71,1683531722.46875
-30.05,1683531722.484375
-36.73,1683531722.5
-42.80,1683531722.515625
-47.03,1683531722.53125
-48.26,1683531722.546875
-45.70,1683531722.5625
-39.28,1683531722.578125
-29.63,1683531722.59375
-17.97,1683531722.609375
-5.73,1683531722.625
5.79,1683531722.640625
15.64,1683531722.65625
23.31,1683531722.671875
28.60,1683531722.6875
31.54,1683531722.703125
32.34,1683531722.71875
31.33,1683531722.734375
28.96,1683531722.75
25.74,1683531722.765625
22.22,1683531722.78125
18.83,1683531722.796875
15.89,1683531722.8125
13.54,1683531722.828125
11.78,1683531722.84375
10.55,1683531722.859375
9.72,1683531722.875
9.28,1683531722.890625
9.24,1683531722.90625
9.62,1683531722.921875
10.31,1683531722.9375
10.98,1683531722.953125
11.15,1683531722.96875
10.29,1683531722.984375
8.04,1683531723.0
4.38,1683531723.015625
-0.31,1683531723.03125
-5.44,1683531723.046875
-10.37,1683531723.0625
-14.67,1683531723.078125
-18.24,1683531723.09375
-21.34,1683531723.109375
-24.46,1683531723.125
-28.14,1683531723.140625
-32.77,1683531723.15625
-38.36,1683531723.171875
-44.37,1683531723.1875
-49.75,1683531723.203125
-53.14,1683531723.21875
-53.26,1683531723.234375
-49.31,1683531723.25
-41.28,1683531723.265625
-29.93,1683531723.28125
-16.55,1683531723.296875
-2.60,1683531723.3125
10.63,1683531723.328125
22.21,1683531723.34375
31.57,1683531723.359375
38.46,1683531723.375
42.88,1683531723.390625
45.03,1683531723.40625
45.27,1683531723.421875
44.04,1683531723.4375
41.77,1683531723.453125
38.86,1683531723.46875
35.60,1683531723.484375
32.26,1683531723.5
29.02,1683531723.515625
26.04,1683531723.53125
23.40,1683531723.546875
21.13,1683531723.5625
19.24,1683531723.578125
17.70,1683531723.59375
16.52,1683531723.609375
15.70,1683531723.625
15.15,1683531723.640625
14.68,1683531723.65625
13.99,1683531723.671875
12.77,1683531723.6875
10.89,1683531723.703125
8.37,1683531723.71875
5.49,1683531723.734375
2.53,1683531723.75
-0.29,1683531723.765625
-3.03,1683531723.78125
-6.01,1683531723.796875
-9.71,1683531723.8125
-14.58,1683531723.828125
-20.87,1683531723.84375
-28.43,1683531723.859375
-36.61,1683531723.875
-44.40,1683531723.890625
-50.48,1683531723.90625
-53.59,1683531723.921875
-52.76,1683531723.9375
-47.61,1683531723.953125
-38.49,1683531723.96875
-26.41,1683531723.984375
-12.82,1683531724.0
0.81,1683531724.015625
13.21,1683531724.03125
23.56,1683531724.046875
31.42,1683531724.0625
36.67,1683531724.078125
39.38,1683531724.09375
39.76,1683531724.109375
38.14,1683531724.125
35.02,1683531724.140625
30.98,1683531724.15625
26.65,1683531724.171875
22.54,1683531724.1875
19.03,1683531724.203125
16.30,1683531724.21875
14.36,1683531724.234375
13.12,1683531724.25
12.42,1683531724.265625
12.06,1683531724.28125
11.79,1683531724.296875
11.33,1683531724.3125
10.44,1683531724.328125
8.96,1683531724.34375
6.82,1683531724.359375
4.06,1683531724.375
0.75,1683531724.390625
-2.93,1683531724.40625
-6.84,1683531724.421875
-10.89,1683531724.4375
-15.12,1683531724.453125
-19.69,1683531724.46875
-24.86,1683531724.484375
-30.80,1683531724.5
-37.41,1683531724.515625
-44.12,1683531724.53125
-49.93,1683531724.546875
-53.57,1683531724.5625
-53.85,1683531724.578125
-50.04,1683531724.59375
-42.17,1683531724.609375
-30.96,1683531724.625
-17.67,1683531724.640625
-3.77,1683531724.65625
9.44,1683531724.671875
20.98,1683531724.6875
30.23,1683531724.703125
36.90,1683531724.71875
40.93,1683531724.734375
42.44,1683531724.75
41.76,1683531724.765625
39.43,1683531724.78125
36.11,1683531724.796875
32.49,1683531724.8125
29.11,1683531724.828125
26.36,1683531724.84375
24.42,1683531724.859375
23.35,1683531724.875
23.19,1683531724.890625
23.91,1683531724.90625
25.31,1683531724.921875
26.91,1683531724.9375
28.02,1683531724.953125
27.85,1683531724.96875
25.93,1683531724.984375
22.24,1683531725.0
17.38,1683531725.015625
12.21,1683531725.03125
7.54,1683531725.046875
3.73,1683531725.0625
0.62,1683531725.078125
-2.40,1683531725.09375
-6.03,1683531725.109375
-10.85,1683531725.125
-17.08,1683531725.140625
-24.56,1683531725.15625
-32.70,1683531725.171875
-40.54,1683531725.1875
-46.82,1683531725.203125
-50.15,1683531725.21875
-49.40,1683531725.234375
-44.09,1683531725.25
-34.66,1683531725.265625
-22.49,1683531725.28125
-9.51,1683531725.296875
2.36,1683531725.3125
11.79,1683531725.328125
18.33,1683531725.34375
22.38,1683531725.359375
24.73,1683531725.375
26.14,1683531725.390625
26.98,1683531725.40625
27.20,1683531725.421875
26.50,1683531725.4375
24.74,1683531725.453125
22.09,1683531725.46875
19.05,1683531725.484375
16.22,1683531725.5
14.03,1683531725.515625
12.62,1683531725.53125
11.83,1683531725.546875
11.48,1683531725.5625
11.44,1683531725.578125
11.74,1683531725.59375
12.46,1683531725.609375
13.47,1683531725.625
14.46,1683531725.640625
14.90,1683531725.65625
14.31,1683531725.671875
12.43,1683531725.6875
9.35,1683531725.703125
5.40,1683531725.71875
0.99,1683531725.734375
-3.57,1683531725.75
-8.25,1683531725.765625
-13.28,1683531725.78125
-19.04,1683531725.796875
-25.89,1683531725.8125
-33.86,1683531725.828125
-42.55,1683531725.84375
-50.99,1683531725.859375
-57.85,1683531725.875
-61.73,1683531725.890625
-61.56,1683531725.90625
-56.93,1683531725.921875
-48.17,1683531725.9375
-36.28,1683531725.953125
-22.67,1683531725.96875
-8.85,1683531725.984375
3.79,1683531726.0
14.17,1683531726.015625
21.59,1683531726.03125
25.91,1683531726.046875
27.43,1683531726.0625
26.90,1683531726.078125
25.17,1683531726.09375
23.08,1683531726.109375
21.20,1683531726.125
19.90,1683531726.140625
19.34,1683531726.15625
19.57,1683531726.171875
20.51,1683531726.1875
21.96,1683531726.203125
23.54,1683531726.21875
24.85,1683531726.234375
25.65,1683531726.25
25.95,1683531726.265625
26.06,1683531726.28125
26.30,1683531726.296875
26.75,1683531726.3125
27.07,1683531726.328125
26.60,1683531726.34375
24.66,1683531726.359375
20.91,1683531726.375
15.58,1683531726.390625
9.47,1683531726.40625
3.53,1683531726.421875
-1.47,1683531726.4375
-5.29,1683531726.453125
-8.32,1683531726.46875
-11.37,1683531726.484375
-15.37,1683531726.5
-20.91,1683531726.515625
-28.06,1683531726.53125
-36.21,1683531726.546875
-44.22,1683531726.5625
-50.68,1683531726.578125
-54.23,1683531726.59375
-53.93,1683531726.609375
-49.43,1683531726.625
-41.10,1683531726.640625
-29.90,1683531726.65625
-17.16,1683531726.671875
-4.24,1683531726.6875
7.74,1683531726.703125
17.98,1683531726.71875
26.01,1683531726.734375
31.51,1683531726.75
34.21,1683531726.765625
33.99,1683531726.78125
30.99,1683531726.796875
25.84,1683531726.8125
19.58,1683531726.828125
13.40,1683531726.84375
8.32,1683531726.859375
4.87,1683531726.875
3.09,1683531726.890625
2.67,1683531726.90625
3.23,1683531726.921875
4.42,1683531726.9375
5.86,1683531726.953125
7.14,1683531726.96875
7.76,1683531726.984375
7.35,1683531727.0
5.89,1683531727.015625
3.83,1683531727.03125
1.93,1683531727.046875
0.84,1683531727.0625
0.74,1683531727.078125
1.22,1683531727.09375
1.40,1683531727.109375
0.38,1683531727.125
-2.42,1683531727.140625
-7.03,1683531727.15625
-12.99,1683531727.171875
-19.49,1683531727.1875
-25.54,1683531727.203125
-30.12,1683531727.21875
-32.29,1683531727.234375
-31.38,1683531727.25
-27.16,1683531727.265625
-19.90,1683531727.28125
-10.39,1683531727.296875
0.35,1683531727.3125
11.25,1683531727.328125
21.46,1683531727.34375
30.36,1683531727.359375
37.49,1683531727.375
42.54,1683531727.390625
45.28,1683531727.40625
45.65,1683531727.421875
43.87,1683531727.4375
40.39,1683531727.453125
35.82,1683531727.46875
30.78,1683531727.484375
25.78,1683531727.5
21.17,1683531727.515625
17.22,1683531727.53125
14.09,1683531727.546875
11.94,1683531727.5625
10.85,1683531727.578125
10.82,1683531727.59375
11.66,1683531727.609375
13.03,1683531727.625
14.44,1683531727.640625
15.31,1683531727.65625
15.13,1683531727.671875
13.55,1683531727.6875
10.54,1683531727.703125
6.40,1683531727.71875
1.71,1683531727.734375
-2.85,1683531727.75
-6.74,1683531727.765625
-9.75,1683531727.78125
-12.09,1683531727.796875
-14.29,1683531727.8125
-17.05,1683531727.828125
-20.92,1683531727.84375
-26.08,1683531727.859375
-32.04,1683531727.875
-37.72,1683531727.890625
-41.58,1683531727.90625
-42.06,1683531727.921875
-38.13,1683531727.9375
-29.66,1683531727.953125
-17.60,1683531727.96875
-3.69,1683531727.984375
10.11,1683531728.0
22.19,1683531728.015625
31.71,1683531728.03125
38.53,1683531728.046875
43.02,1683531728.0625
45.52,1683531728.078125
46.25,1683531728.09375
45.22,1683531728.109375
42.54,1683531728.125
38.56,1683531728.140625
33.87,1683531728.15625
29.12,1683531728.171875
24.77,1683531728.1875
20.98,1683531728.203125
17.67,1683531728.21875
14.67,1683531728.234375
11.89,1683531728.25
9.38,1683531728.265625
7.22,1683531728.28125
5.38,1683531728.296875
3.66,1683531728.3125
1.82,1683531728.328125
-0.36,1683531728.34375
-2.91,1683531728.359375
-5.73,1683531728.375
-8.67,1683531728.390625
-11.61,1683531728.40625
-14.56,1683531728.421875
-17.51,1683531728.4375
-20.53,1683531728.453125
-23.67,1683531728.46875
-27.15,1683531728.484375
-31.31,1683531728.5
-36.55,1683531728.515625
-42.95,1683531728.53125
-50.03,1683531728.546875
-56.63,1683531728.5625
-61.11,1683531728.578125
-62.00,1683531728.59375
-58.50,1683531728.609375
-50.93,1683531728.625
-40.58,1683531728.640625
-29.21,1683531728.65625
-18.48,1683531728.671875
-9.48,1683531728.6875
-2.57,1683531728.703125
2.43,1683531728.71875
5.94,1683531728.734375
8.39,1683531728.75
10.16,1683531728.765625
11.48,1683531728.78125
12.50,1683531728.796875
13.26,1683531728.8125
13.72,1683531728.828125
13.77,1683531728.84375
13.29,1683531728.859375
12.24,1683531728.875
10.74,1683531728.890625
9.03,1683531728.90625
7.42,1683531728.921875
6.23,1683531728.9375
5.70,1683531728.953125
5.92,1683531728.96875
6.79,1683531728.984375
7.96,1683531729.0
8.93,1683531729.015625
9.05,1683531729.03125
7.70,1683531729.046875
4.45,1683531729.0625
-0.85,1683531729.078125
-7.94,1683531729.09375
-16.21,1683531729.109375
-24.84,1683531729.125
-32.98,1683531729.140625
-39.99,1683531729.15625
-45.49,1683531729.171875
-49.40,1683531729.1875
-51.83,1683531729.203125
-52.91,1683531729.21875
-52.73,1683531729.234375
-51.30,1683531729.25
-48.59,1683531729.265625
-44.62,1683531729.28125
-39.52,1683531729.296875
-33.59,1683531729.3125
-27.37,1683531729.328125
-21.66,1683531729.34375
-17.47,1683531729.359375
-15.84,1683531729.375
-17.57,1683531729.390625
-22.84,1683531729.40625
-31.04,1683531729.421875
-40.74,1683531729.4375
-50.01,1683531729.453125
-56.86,1683531729.46875
-59.78,1683531729.484375
-58.07,1683531729.5
-51.95,1683531729.515625
-42.51,1683531729.53125
-31.45,1683531729.546875
-20.81,1683531729.5625
-12.56,1683531729.578125
-8.28,1683531729.59375
-8.77,1683531729.609375
-13.71,1683531729.625
-21.72,1683531729.640625
-30.65,1683531729.65625
-38.25,1683531729.671875
-42.97,1683531729.6875
-44.47,1683531729.703125
-43.58,1683531729.71875
-41.95,1683531729.734375
-41.20,1683531729.75
-42.34,1683531729.765625
-45.39,1683531729.78125
-49.38,1683531729.796875
-52.84,1683531729.8125
-54.26,1683531729.828125
-52.75,1683531729.84375
-48.30,1683531729.859375
-41.90,1683531729.875
-35.08,1683531729.890625
-29.25,1683531729.90625
-24.92,1683531729.921875
-21.19,1683531729.9375
-15.77,1683531729.953125
-5.40,1683531729.96875
13.56,1683531729.984375
44.14,1683531730.0
87.83,1683531730.015625
143.50,1683531730.03125
206.64,1683531730.046875
269.63,1683531730.0625
323.49,1683531730.078125
360.45,1683531730.09375
376.25,1683531730.109375
371.38,1683531730.125
350.43,1683531730.140625
320.35,1683531730.15625
288.59,1683531730.171875
261.66,1683531730.1875
244.18,1683531730.203125
238.30,1683531730.21875
242.93,1683531730.234375
253.42,1683531730.25
262.02,1683531730.265625
260.23,1683531730.28125
241.99,1683531730.296875
206.51,1683531730.3125
159.16,1683531730.328125
109.73,1683531730.34375
68.66,1683531730.359375
43.35,1683531730.375
35.74,1683531730.390625
42.23,1683531730.40625
55.58,1683531730.421875
67.56,1683531730.4375
71.20,1683531730.453125
62.31,1683531730.46875
39.90,1683531730.484375
5.86,1683531730.5
-35.80,1683531730.515625
-79.75,1683531730.53125
-120.64,1683531730.546875
-154.46,1683531730.5625
-179.57,1683531730.578125
-196.88,1683531730.59375
-208.86,1683531730.609375
-217.75,1683531730.625
-223.85,1683531730.640625
-225.00,1683531730.65625
-217.26,1683531730.671875
-196.86,1683531730.6875
-162.08,1683531730.703125
-114.44,1683531730.71875
-58.48,1683531730.734375
-0.49,1683531730.75
53.15,1683531730.765625
97.32,1683531730.78125
128.85,1683531730.796875
146.66,1683531730.8125
151.27,1683531730.828125
144.23,1683531730.84375
127.53,1683531730.859375
103.27,1683531730.875
73.91,1683531730.890625
42.27,1683531730.90625
11.42,1683531730.921875
-16.02,1683531730.9375
-38.89,1683531730.953125
-58.15,1683531730.96875
-76.40,1683531730.984375
-96.40,1683531731.0
-119.17,1683531731.015625
-142.81,1683531731.03125
-162.86,1683531731.046875
-174.00,1683531731.0625
-172.23,1683531731.078125
-156.63,1683531731.09375
-129.80,1683531731.109375
-96.97,1683531731.125
-64.38,1683531731.140625
-37.53,1683531731.15625
-19.86,1683531731.171875
-12.15,1683531731.1875
-12.48,1683531731.203125
-16.95,1683531731.21875
-20.94,1683531731.234375
-20.58,1683531731.25
-14.15,1683531731.265625
-2.62,1683531731.28125
10.76,1683531731.296875
21.70,1683531731.3125
26.40,1683531731.328125
22.76,1683531731.34375
10.70,1683531731.359375
-8.20,1683531731.375
-31.38,1683531731.390625
-55.99,1683531731.40625
-79.34,1683531731.421875
-99.22,1683531731.4375
-114.03,1683531731.453125
-122.99,1683531731.46875
-126.17,1683531731.484375
-124.37,1683531731.5
-118.88,1683531731.515625
-111.14,1683531731.53125
-102.47,1683531731.546875
-93.96,1683531731.5625
-86.39,1683531731.578125
-80.14,1683531731.59375
-75.17,1683531731.609375
-70.96,1683531731.625
-66.65,1683531731.640625
-61.39,1683531731.65625
-54.65,1683531731.671875
-46.49,1683531731.6875
-37.51,1683531731.703125
-28.57,1683531731.71875
-20.42,1683531731.734375
-13.58,1683531731.75
-8.19,1683531731.765625
-4.18,1683531731.78125
-1.47,1683531731.796875
-0.03,1683531731.8125
0.07,1683531731.828125
-1.14,1683531731.84375
-3.41,1683531731.859375
-6.22,1683531731.875
-8.86,1683531731.890625
-10.56,1683531731.90625
-10.80,1683531731.921875
-9.42,1683531731.9375
-6.71,1683531731.953125
-3.31,1683531731.96875
0.06,1683531731.984375
2.77,1683531732.0
4.52,1683531732.015625
5.28,1683531732.03125
5.24,1683531732.046875
4.53,1683531732.0625
3.13,1683531732.078125
0.79,1683531732.09375
-2.75,1683531732.109375
-7.57,1683531732.125
-13.42,1683531732.140625
-19.72,1683531732.15625
-25.74,1683531732.171875
-30.78,1683531732.1875
-34.39,1683531732.203125
-36.37,1683531732.21875
-36.60,1683531732.234375
-35.02,1683531732.25
-31.57,1683531732.265625
-26.33,1683531732.28125
-19.62,1683531732.296875
-12.10,1683531732.3125
-4.62,1683531732.328125
1.98,1683531732.34375
7.10,1683531732.359375
10.53,1683531732.375
12.39,1683531732.390625
13.00,1683531732.40625
12.70,1683531732.421875
11.73,1683531732.4375
10.26,1683531732.453125
8.44,1683531732.46875
6.48,1683531732.484375
4.65,1683531732.5
3.17,1683531732.515625
2.07,1683531732.53125
1.25,1683531732.546875
0.45,1683531732.5625
-0.56,1683531732.578125
-1.85,1683531732.59375
-3.30,1683531732.609375
-4.76,1683531732.625
-6.16,1683531732.640625
-7.60,1683531732.65625
-9.40,1683531732.671875
-11.91,1683531732.6875
-15.31,1683531732.703125
-19.50,1683531732.71875
-24.03,1683531732.734375
-28.13,1683531732.75
-30.89,1683531732.765625
-31.41,1683531732.78125
-29.06,1683531732.796875
-23.67,1683531732.8125
-15.60,1683531732.828125
-5.75,1683531732.84375
4.67,1683531732.859375
14.44,1683531732.875
22.63,1683531732.890625
28.79,1683531732.90625
32.87,1683531732.921875
35.12,1683531732.9375
35.81,1683531732.953125
35.19,1683531732.96875
33.40,1683531732.984375
30.66,1683531733.0
27.31,1683531733.015625
23.85,1683531733.03125
20.80,1683531733.046875
18.43,1683531733.0625
16.70,1683531733.078125
15.12,1683531733.09375
13.07,1683531733.109375
9.98,1683531733.125
5.72,1683531733.140625
0.60,1683531733.15625
-4.73,1683531733.171875
-9.61,1683531733.1875
-13.66,1683531733.203125
-16.93,1683531733.21875
-19.96,1683531733.234375
-23.41,1683531733.25
-27.89,1683531733.265625
-33.59,1683531733.28125
-40.21,1683531733.296875
-46.93,1683531733.3125
-52.59,1683531733.328125
-55.95,1683531733.34375
-55.97,1683531733.359375
-52.19,1683531733.375
-44.73,1683531733.390625
-34.39,1683531733.40625
-22.37,1683531733.421875
-10.03,1683531733.4375
1.44,1683531733.453125
11.20,1683531733.46875
18.77,1683531733.484375
23.95,1683531733.5
26.77,1683531733.515625
27.29,1683531733.53125
25.71,1683531733.546875
22.35,1683531733.5625
17.79,1683531733.578125
12.75,1683531733.59375
8.04,1683531733.609375
4.27,1683531733.625
1.75,1683531733.640625
0.40,1683531733.65625
-0.18,1683531733.671875
-0.45,1683531733.6875
-0.74,1683531733.703125
-1.28,1683531733.71875
-2.15,1683531733.734375
-3.52,1683531733.75
-5.76,1683531733.765625
-9.41,1683531733.78125
-15.02,1683531733.796875
-22.94,1683531733.8125
-33.13,1683531733.828125
-45.14,1683531733.84375
-58.18,1683531733.859375
-71.24,1683531733.875
-83.10,1683531733.890625
-92.48,1683531733.90625
-98.07,1683531733.921875
-98.81,1683531733.9375
-94.14,1683531733.953125
-84.29,1683531733.96875
-70.28,1683531733.984375
-53.76,1683531734.0
-36.57,1683531734.015625
-20.31,1683531734.03125
-6.06,1683531734.046875
5.63,1683531734.0625
14.55,1683531734.078125
20.65,1683531734.09375
23.94,1683531734.109375
24.53,1683531734.125
22.71,1683531734.140625
19.09,1683531734.15625
14.56,1683531734.171875
10.13,1683531734.1875
6.73,1683531734.203125
4.90,1683531734.21875
4.66,1683531734.234375
5.49,1683531734.25
6.57,1683531734.265625
7.10,1683531734.28125
6.60,1683531734.296875
5.04,1683531734.3125
2.77,1683531734.328125
0.24,1683531734.34375
-2.27,1683531734.359375
-4.81,1683531734.375
-7.80,1683531734.390625
-11.84,1683531734.40625
-17.49,1683531734.421875
-25.07,1683531734.4375
-34.41,1683531734.453125
-44.81,1683531734.46875
-54.97,1683531734.484375
-63.15,1683531734.5
-67.49,1683531734.515625
-66.45,1683531734.53125
-59.27,1683531734.546875
-46.34,1683531734.5625
-29.04,1683531734.578125
-9.43,1683531734.59375
10.32,1683531734.609375
28.52,1683531734.625
44.12,1683531734.640625
56.74,1683531734.65625
66.39,1683531734.671875
73.20,1683531734.6875
77.26,1683531734.703125
78.67,1683531734.71875
77.66,1683531734.734375
74.75,1683531734.75
70.76,1683531734.765625
66.64,1683531734.78125
63.33,1683531734.796875
61.40,1683531734.8125
61.05,1683531734.828125
62.03,1683531734.84375
63.90,1683531734.859375
66.16,1683531734.875
68.37,1683531734.890625
70.28,1683531734.90625
71.69,1683531734.921875
72.40,1683531734.9375
72.20,1683531734.953125
70.94,1683531734.96875
68.55,1683531734.984375
65.21,1683531735.0
61.26,1683531735.015625
57.06,1683531735.03125
52.84,1683531735.046875
48.53,1683531735.0625
43.91,1683531735.078125
38.81,1683531735.09375
33.57,1683531735.109375
29.18,1683531735.125
27.26,1683531735.140625
29.64,1683531735.15625
37.74,1683531735.171875
52.00,1683531735.1875
71.65,1683531735.203125
94.88,1683531735.21875
119.23,1683531735.234375
142.19,1683531735.25
161.54,1683531735.265625
175.65,1683531735.28125
183.57,1683531735.296875
185.05,1683531735.3125
180.59,1683531735.328125
171.20,1683531735.34375
158.23,1683531735.359375
142.87,1683531735.375
125.79,1683531735.390625
107.02,1683531735.40625
86.07,1683531735.421875
62.42,1683531735.4375
35.90,1683531735.453125
7.18,1683531735.46875
-22.11,1683531735.484375
-49.49,1683531735.5
-72.02,1683531735.515625
-86.99,1683531735.53125
-92.84,1683531735.546875
-89.96,1683531735.5625
-80.93,1683531735.578125
-69.86,1683531735.59375
-61.03,1683531735.609375
-57.43,1683531735.625
-59.97,1683531735.640625
-67.63,1683531735.65625
-78.52,1683531735.671875
-91.09,1683531735.6875
-104.65,1683531735.703125
-119.10,1683531735.71875
-134.15,1683531735.734375
-148.76,1683531735.75
-161.13,1683531735.765625
-169.21,1683531735.78125
-171.14,1683531735.796875
-165.45,1683531735.8125
-150.88,1683531735.828125
-126.55,1683531735.84375
-92.27,1683531735.859375
-49.42,1683531735.875
-1.33,1683531735.890625
47.02,1683531735.90625
89.84,1683531735.921875
121.79,1683531735.9375
138.68,1683531735.953125
137.94,1683531735.96875
118.85,1683531735.984375
82.86,1683531736.0
34.01,1683531736.015625
-21.14,1683531736.03125
-74.54,1683531736.046875
-118.71,1683531736.0625
-148.67,1683531736.078125
-163.19,1683531736.09375
-164.29,1683531736.109375
-155.62,1683531736.125
-140.71,1683531736.140625
-121.96,1683531736.15625
-100.80,1683531736.171875
-78.50,1683531736.1875
-56.71,1683531736.203125
-37.37,1683531736.21875
-22.02,1683531736.234375
-11.14,1683531736.25
-4.08,1683531736.265625
0.35,1683531736.28125
3.02,1683531736.296875
3.97,1683531736.3125
2.43,1683531736.328125
-2.59,1683531736.34375
-11.53,1683531736.359375
-23.87,1683531736.375
-37.96,1683531736.390625
-51.25,1683531736.40625
-61.01,1683531736.421875
-64.97,1683531736.4375
-61.95,1683531736.453125
-52.15,1683531736.46875
-37.11,1683531736.484375
-19.17,1683531736.5
-0.77,1683531736.515625
16.13,1683531736.53125
30.44,1683531736.546875
41.83,1683531736.5625
50.50,1683531736.578125
56.81,1683531736.59375
61.13,1683531736.609375
63.74,1683531736.625
64.91,1683531736.640625
64.94,1683531736.65625
64.12,1683531736.671875
62.73,1683531736.6875
60.92,1683531736.703125
58.83,1683531736.71875
56.60,1683531736.734375
54.50,1683531736.75
52.87,1683531736.765625
52.08,1683531736.78125
52.36,1683531736.796875
53.65,1683531736.8125
55.55,1683531736.828125
57.36,1683531736.84375
58.27,1683531736.859375
57.59,1683531736.875
54.99,1683531736.890625
50.53,1683531736.90625
44.58,1683531736.921875
37.71,1683531736.9375
30.45,1683531736.953125
23.16,1683531736.96875
15.93,1683531736.984375
8.58,1683531737.0
0.76,1683531737.015625
-7.96,1683531737.03125
-17.83,1683531737.046875
-28.72,1683531737.0625
-39.87,1683531737.078125
-49.97,1683531737.09375
-57.43,1683531737.109375
-60.83,1683531737.125
-59.46,1683531737.140625
-53.52,1683531737.15625
-44.00,1683531737.171875
-32.39,1683531737.1875
-20.09,1683531737.203125
-8.15,1683531737.21875
2.81,1683531737.234375
12.45,1683531737.25
20.51,1683531737.265625
26.69,1683531737.28125
30.71,1683531737.296875
32.55,1683531737.3125
32.49,1683531737.328125
31.18,1683531737.34375
29.40,1683531737.359375
27.92,1683531737.375
27.24,1683531737.390625
27.60,1683531737.40625
28.88,1683531737.421875
30.80,1683531737.4375
33.00,1683531737.453125
35.19,1683531737.46875
37.21,1683531737.484375
38.99,1683531737.5
40.46,1683531737.515625
41.50,1683531737.53125
41.82,1683531737.546875
41.07,1683531737.5625
38.92,1683531737.578125
35.24,1683531737.59375
30.16,1683531737.609375
24.05,1683531737.625
17.42,1683531737.640625
10.70,1683531737.65625
4.07,1683531737.671875
-2.63,1683531737.6875
-9.85,1683531737.703125
-18.19,1683531737.71875
-28.09,1683531737.734375
-39.59,1683531737.75
-52.11,1683531737.765625
-64.38,1683531737.78125
-74.64,1683531737.796875
-81.02,1683531737.8125
-82.05,1683531737.828125
-77.10,1683531737.84375
-66.60,1683531737.859375
-51.91,1683531737.875
-34.96,1683531737.890625
-17.72,1683531737.90625
-1.81,1683531737.921875
11.72,1683531737.9375
22.35,1683531737.953125
29.89,1683531737.96875
34.34,1683531737.984375
35.73,1683531738.0
34.26,1683531738.015625
30.36,1683531738.03125
24.68,1683531738.046875
18.03,1683531738.0625
11.20,1683531738.078125
4.81,1683531738.09375
-0.76,1683531738.109375
-5.35,1683531738.125
-8.92,1683531738.140625
-11.37,1683531738.15625
-12.59,1683531738.171875
-12.46,1683531738.1875
-11.06,1683531738.203125
-8.71,1683531738.21875
-5.97,1683531738.234375
-3.46,1683531738.25
-1.60,1683531738.265625
-0.41,1683531738.28125
0.42,1683531738.296875
1.33,1683531738.3125
2.61,1683531738.328125
4.19,1683531738.34375
5.64,1683531738.359375
6.42,1683531738.375
6.08,1683531738.390625
4.53,1683531738.40625
2.09,1683531738.421875
-0.59,1683531738.4375
-2.58,1683531738.453125
-2.90,1683531738.46875
-0.62,1683531738.484375
4.81,1683531738.5
13.47,1683531738.515625
24.78,1683531738.53125
37.59,1683531738.546875
50.51,1683531738.5625
62.22,1683531738.578125
71.79,1683531738.59375
78.79,1683531738.609375
83.25,1683531738.625
85.39,1683531738.640625
85.45,1683531738.65625
83.63,1683531738.671875
80.05,1683531738.6875
74.93,1683531738.703125
68.66,1683531738.71875
61.83,1683531738.734375
55.17,1683531738.75
49.36,1683531738.765625
44.89,1683531738.78125
41.90,1683531738.796875
40.24,1683531738.8125
39.51,1683531738.828125
39.20,1683531738.84375
38.86,1683531738.859375
38.15,1683531738.875
36.88,1683531738.890625
34.97,1683531738.90625
32.46,1683531738.921875
29.41,1683531738.9375
25.89,1683531738.953125
21.88,1683531738.96875
17.31,1683531738.984375
11.96,1683531739.0
5.54,1683531739.015625
-2.25,1683531739.03125
-11.70,1683531739.046875
-22.91,1683531739.0625
-35.74,1683531739.078125
-49.66,1683531739.09375
-63.77,1683531739.109375
-76.81,1683531739.125
-87.32,1683531739.140625
-94.00,1683531739.15625
-95.87,1683531739.171875
-92.66,1683531739.1875
-84.79,1683531739.203125
-73.27,1683531739.21875
-59.50,1683531739.234375
-44.94,1683531739.25
-30.89,1683531739.265625
-18.32,1683531739.28125
-7.90,1683531739.296875
0.03,1683531739.3125
5.39,1683531739.328125
8.31,1683531739.34375
9.07,1683531739.359375
8.10,1683531739.375
5.90,1683531739.390625
3.01,1683531739.40625
-0.01,1683531739.421875
-2.70,1683531739.4375
-4.79,1683531739.453125
-6.22,1683531739.46875
-7.16,1683531739.484375
-7.88,1683531739.5
-8.58,1683531739.515625
-9.32,1683531739.53125
-9.99,1683531739.546875
-10.42,1683531739.5625
-10.51,1683531739.578125
-10.23,1683531739.59375
-9.65,1683531739.609375
-8.85,1683531739.625
-7.90,1683531739.640625
-6.98,1683531739.65625
-6.47,1683531739.671875
-6.95,1683531739.6875
-9.02,1683531739.703125
-13.11,1683531739.71875
-19.24,1683531739.734375
-26.96,1683531739.75
-35.62,1683531739.765625
-44.54,1683531739.78125
-53.19,1683531739.796875
-61.19,1683531739.8125
-68.12,1683531739.828125
-73.35,1683531739.84375
-76.10,1683531739.859375
-75.58,1683531739.875
-71.38,1683531739.890625
-63.67,1683531739.90625
-53.31,1683531739.921875
-41.59,1683531739.9375
-29.85,1683531739.953125
-19.10,1683531739.96875
-9.85,1683531739.984375
-2.10,1683531740.0
4.36,1683531740.015625
9.69,1683531740.03125
13.88,1683531740.046875
16.85,1683531740.0625
18.52,1683531740.078125
19.05,1683531740.09375
18.83,1683531740.109375
18.40,1683531740.125
18.31,1683531740.140625
19.06,1683531740.15625
20.96,1683531740.171875
24.21,1683531740.1875
28.79,1683531740.203125
34.44,1683531740.21875
40.61,1683531740.234375
46.57,1683531740.25
51.46,1683531740.265625
54.53,1683531740.28125
55.35,1683531740.296875
53.82,1683531740.3125
50.33,1683531740.328125
45.55,1683531740.34375
40.24,1683531740.359375
34.93,1683531740.375
29.69,1683531740.390625
24.16,1683531740.40625
17.63,1683531740.421875
9.53,1683531740.4375
-0.40,1683531740.453125
-12.00,1683531740.46875
-24.70,1683531740.484375
-37.72,1683531740.5
-50.07,1683531740.515625
-60.52,1683531740.53125
-67.56,1683531740.546875
-69.66,1683531740.5625
-65.74,1683531740.578125
-55.68,1683531740.59375
-40.75,1683531740.609375
-23.33,1683531740.625
-6.34,1683531740.640625
7.69,1683531740.65625
17.39,1683531740.671875
22.76,1683531740.6875
24.87,1683531740.703125
25.12,1683531740.71875
24.69,1683531740.734375
24.11,1683531740.75
23.41,1683531740.765625
22.36,1683531740.78125
20.87,1683531740.796875
19.06,1683531740.8125
17.20,1683531740.828125
15.48,1683531740.84375
13.91,1683531740.859375
12.36,1683531740.875
10.66,1683531740.890625
8.79,1683531740.90625
6.86,1683531740.921875
5.00,1683531740.9375
3.16,1683531740.953125
1.01,1683531740.96875
-2.06,1683531740.984375
-6.71,1683531741.0
-13.39,1683531741.015625
-22.18,1683531741.03125
-32.72,1683531741.046875
-44.44,1683531741.0625
-56.65,1683531741.078125
-68.88,1683531741.09375
-80.88,1683531741.109375
-92.63,1683531741.125
-104.10,1683531741.140625
-115.03,1683531741.15625
-124.61,1683531741.171875
-131.42,1683531741.1875
-133.67,1683531741.203125
-129.60,1683531741.21875
-118.08,1683531741.234375
-99.05,1683531741.25
-73.66,1683531741.265625
-44.06,1683531741.28125
-12.84,1683531741.296875
17.46,1683531741.3125
44.81,1683531741.328125
67.82,1683531741.34375
85.67,1683531741.359375
98.05,1683531741.375
105.03,1683531741.390625
107.09,1683531741.40625
105.06,1683531741.421875
100.09,1683531741.4375
93.45,1683531741.453125
86.31,1683531741.46875
79.54,1683531741.484375
73.61,1683531741.5
68.60,1683531741.515625
64.32,1683531741.53125
60.46,1683531741.546875
56.76,1683531741.5625
53.10,1683531741.578125
49.42,1683531741.59375
45.67,1683531741.609375
41.67,1683531741.625
37.08,1683531741.640625
31.52,1683531741.65625
24.75,1683531741.671875
16.83,1683531741.6875
8.20,1683531741.703125
-0.42,1683531741.71875
-8.27,1683531741.734375
-14.81,1683531741.75
-19.93,1683531741.765625
-23.99,1683531741.78125
-27.69,1683531741.796875
-31.87,1683531741.8125
-37.19,1683531741.828125
-43.87,1683531741.84375
-51.49,1683531741.859375
-58.97,1683531741.875
-64.67,1683531741.890625
-66.87,1683531741.90625
-64.24,1683531741.921875
-56.33,1683531741.9375
-43.76,1683531741.953125
-28.07,1683531741.96875
-11.28,1683531741.984375
4.67,1683531742.0
18.31,1683531742.015625
28.85,1683531742.03125
36.06,1683531742.046875
40.03,1683531742.0625
41.04,1683531742.078125
39.42,1683531742.09375
35.66,1683531742.109375
30.38,1683531742.125
24.33,1683531742.140625
18.22,1683531742.15625
12.62,1683531742.171875
7.89,1683531742.1875
4.24,1683531742.203125
1.84,1683531742.21875
0.92,1683531742.234375
1.79,1683531742.25
4.63,1683531742.265625
9.35,1683531742.28125
15.44,1683531742.296875
21.92,1683531742.3125
27.59,1683531742.328125
31.32,1683531742.34375
32.45,1683531742.359375
30.91,1683531742.375
27.27,1683531742.390625
22.50,1683531742.40625
17.60,1683531742.421875
13.29,1683531742.4375
9.78,1683531742.453125
6.70,1683531742.46875
3.28,1683531742.484375
-1.35,1683531742.5
-7.85,1683531742.515625
-16.31,1683531742.53125
-26.15,1683531742.546875
-36.14,1683531742.5625
-44.66,1683531742.578125
-50.03,1683531742.59375
-51.05,1683531742.609375
-47.25,1683531742.625
-39.09,1683531742.640625
-27.80,1683531742.65625
-15.05,1683531742.671875
-2.50,1683531742.6875
8.47,1683531742.703125
17.02,1683531742.71875
22.80,1683531742.734375
25.87,1683531742.75
26.53,1683531742.765625
25.22,1683531742.78125
22.43,1683531742.796875
18.71,1683531742.8125
14.59,1683531742.828125
10.52,1683531742.84375
6.79,1683531742.859375
3.48,1683531742.875
0.54,1683531742.890625
-2.02,1683531742.90625
-4.05,1683531742.921875
-5.13,1683531742.9375
-4.82,1683531742.953125
-2.84,1683531742.96875
0.60,1683531742.984375
4.65,1683531743.0
8.02,1683531743.015625
9.31,1683531743.03125
7.48,1683531743.046875
2.15,1683531743.0625
-6.31,1683531743.078125
-16.91,1683531743.09375
-28.28,1683531743.109375
-38.87,1683531743.125
-47.26,1683531743.140625
-52.43,1683531743.15625
-54.09,1683531743.171875
-52.82,1683531743.1875
-49.91,1683531743.203125
-46.77,1683531743.21875
-44.38,1683531743.234375
-42.70,1683531743.25
-40.71,1683531743.265625
-36.90,1683531743.28125
-30.08,1683531743.296875
-19.97,1683531743.3125
-7.41,1683531743.328125
6.02,1683531743.34375
18.65,1683531743.359375
29.25,1683531743.375
37.32,1683531743.390625
42.95,1683531743.40625
46.44,1683531743.421875
48.10,1683531743.4375
48.13,1683531743.453125
46.76,1683531743.46875
44.36,1683531743.484375
41.53,1683531743.5
38.97,1683531743.515625
37.13,1683531743.53125
36.04,1683531743.546875
35.13,1683531743.5625
33.48,1683531743.578125
30.24,1683531743.59375
25.14,1683531743.609375
18.90,1683531743.625
13.12,1683531743.640625
9.77,1683531743.65625
10.44,1683531743.671875
15.72,1683531743.6875
24.83,1683531743.703125
35.88,1683531743.71875
46.38,1683531743.734375
53.84,1683531743.75
56.38,1683531743.765625
53.03,1683531743.78125
43.80,1683531743.796875
29.51,1683531743.8125
11.51,1683531743.828125
-8.64,1683531743.84375
-29.39,1683531743.859375
-49.20,1683531743.875
-66.56,1683531743.890625
-79.91,1683531743.90625
-87.78,1683531743.921875
-89.14,1683531743.9375
-83.75,1683531743.953125
-72.43,1683531743.96875
-56.92,1683531743.984375
-39.43,1683531744.0
-21.98,1683531744.015625
-6.02,1683531744.03125
7.73,1683531744.046875
19.04,1683531744.0625
27.85,1683531744.078125
34.06,1683531744.09375
37.47,1683531744.109375
38.02,1683531744.125
35.97,1683531744.140625
32.02,1683531744.15625
27.27,1683531744.171875
22.91,1683531744.1875
19.96,1683531744.203125
18.98,1683531744.21875
20.04,1683531744.234375
22.81,1683531744.25
26.68,1683531744.265625
31.03,1683531744.28125
35.24,1683531744.296875
38.88,1683531744.3125
41.72,1683531744.328125
43.84,1683531744.34375
45.58,1683531744.359375
47.37,1683531744.375
49.25,1683531744.390625
50.56,1683531744.40625
49.76,1683531744.421875
44.88,1683531744.4375
34.33,1683531744.453125
17.83,1683531744.46875
-3.04,1683531744.484375
-25.12,1683531744.5
-44.62,1683531744.515625
-58.42,1683531744.53125
-65.21,1683531744.546875
-65.82,1683531744.5625
-62.70,1683531744.578125
-58.92,1683531744.59375
-56.88,1683531744.609375
-57.62,1683531744.625
-60.61,1683531744.640625
-64.14,1683531744.65625
-66.09,1683531744.671875
-64.62,1683531744.6875
-58.65,1683531744.703125
-47.95,1683531744.71875
-33.14,1683531744.734375
-15.50,1683531744.75
3.22,1683531744.765625
21.02,1683531744.78125
35.95,1683531744.796875
46.50,1683531744.8125
51.92,1683531744.828125
52.44,1683531744.84375
49.14,1683531744.859375
43.60,1683531744.875
37.37,1683531744.890625
31.53,1683531744.90625
26.48,1683531744.921875
22.09,1683531744.9375
17.92,1683531744.953125
13.64,1683531744.96875
9.16,1683531744.984375
4.65,1683531745.0
0.48,1683531745.015625
-2.89,1683531745.03125
-5.05,1683531745.046875
-5.71,1683531745.0625
-4.74,1683531745.078125
-2.31,1683531745.09375
1.09,1683531745.109375
4.73,1683531745.125
7.77,1683531745.140625
9.42,1683531745.15625
9.21,1683531745.171875
6.98,1683531745.1875
2.98,1683531745.203125
-2.29,1683531745.21875
-8.19,1683531745.234375
-14.07,1683531745.25
-19.40,1683531745.265625
-23.83,1683531745.28125
-27.28,1683531745.296875
-29.96,1683531745.3125
-32.23,1683531745.328125
-34.44,1683531745.34375
-36.62,1683531745.359375
-38.38,1683531745.375
-38.93,1683531745.390625
-37.37,1683531745.40625
-33.06,1683531745.421875
-25.88,1683531745.4375
-16.33,1683531745.453125
-5.31,1683531745.46875
6.18,1683531745.484375
17.29,1683531745.5
27.41,1683531745.515625
36.13,1683531745.53125
43.12,1683531745.546875
47.99,1683531745.5625
50.41,1683531745.578125
50.26,1683531745.59375
47.79,1683531745.609375
43.65,1683531745.625
38.82,1683531745.640625
34.30,1683531745.65625
30.87,1683531745.671875
28.94,1683531745.6875
28.49,1683531745.703125
29.18,1683531745.71875
30.53,1683531745.734375
32.14,1683531745.75
33.71,1683531745.765625
35.07,1683531745.78125
36.11,1683531745.796875
36.68,1683531745.8125
36.53,1683531745.828125
35.41,1683531745.84375
33.05,1683531745.859375
29.25,1683531745.875
23.97,1683531745.890625
17.38,1683531745.90625
9.88,1683531745.921875
2.02,1683531745.9375
-5.74,1683531745.953125
-13.21,1683531745.96875
-20.68,1683531745.984375
-28.80,1683531746.0
-38.38,1683531746.015625
-49.85,1683531746.03125
-62.86,1683531746.046875
-76.05,1683531746.0625
-87.31,1683531746.078125
-94.34,1683531746.09375
-95.46,1683531746.109375
-90.22,1683531746.125
-79.52,1683531746.140625
-65.36,1683531746.15625
-50.12,1683531746.171875
-35.90,1683531746.1875
-24.08,1683531746.203125
-15.21,1683531746.21875
-9.27,1683531746.234375
-6.02,1683531746.25
-5.25,1683531746.265625
-6.75,1683531746.28125
-10.19,1683531746.296875
-15.04,1683531746.3125
-20.56,1683531746.328125
-25.97,1683531746.34375
-30.63,1683531746.359375
-34.15,1683531746.375
-36.40,1683531746.390625
-37.35,1683531746.40625
-36.89,1683531746.421875
-34.79,1683531746.4375
-30.79,1683531746.453125
-24.71,1683531746.46875
-16.71,1683531746.484375
-7.27,1683531746.5
2.78,1683531746.515625
12.55,1683531746.53125
21.11,1683531746.546875
27.79,1683531746.5625
32.13,1683531746.578125
34.00,1683531746.59375
33.60,1683531746.609375
31.41,1683531746.625
28.07,1683531746.640625
24.15,1683531746.65625
19.94,1683531746.671875
15.35,1683531746.6875
10.00,1683531746.703125
3.32,1683531746.71875
-4.98,1683531746.734375
-14.80,1683531746.75
-25.44,1683531746.765625
-35.73,1683531746.78125
-44.24,1683531746.796875
-49.57,1683531746.8125
-50.67,1683531746.828125
-47.05,1683531746.84375
-38.94,1683531746.859375
-27.24,1683531746.875
-13.36,1683531746.890625
1.09,1683531746.90625
14.64,1683531746.921875
26.23,1683531746.9375
35.29,1683531746.953125
41.71,1683531746.96875
45.66,1683531746.984375
47.45,1683531747.0
47.36,1683531747.015625
45.67,1683531747.03125
42.62,1683531747.046875
38.45,1683531747.0625
33.44,1683531747.078125
27.87,1683531747.09375
21.99,1683531747.109375
15.95,1683531747.125
9.85,1683531747.140625
3.75,1683531747.15625
-2.14,1683531747.171875
-7.40,1683531747.1875
-11.45,1683531747.203125
-13.67,1683531747.21875
-13.63,1683531747.234375
-11.32,1683531747.25
-7.21,1683531747.265625
-2.09,1683531747.28125
3.15,1683531747.296875
7.73,1683531747.3125
11.15,1683531747.328125
13.08,1683531747.34375
13.30,1683531747.359375
11.67,1683531747.375
8.15,1683531747.390625
2.86,1683531747.40625
-3.92,1683531747.421875
-11.81,1683531747.4375
-20.47,1683531747.453125
-29.58,1683531747.46875
-38.72,1683531747.484375
-47.16,1683531747.5
-53.72,1683531747.515625
-56.96,1683531747.53125
-55.76,1683531747.546875
-49.73,1683531747.5625
-39.57,1683531747.578125
-26.80,1683531747.59375
-13.11,1683531747.609375
0.29,1683531747.625
12.97,1683531747.640625
25.10,1683531747.65625
36.79,1683531747.671875
47.65,1683531747.6875
56.58,1683531747.703125
62.27,1683531747.71875
63.78,1683531747.734375
61.12,1683531747.75
55.37,1683531747.765625
48.26,1683531747.78125
41.55,1683531747.796875
36.52,1683531747.8125
33.59,1683531747.828125
32.43,1683531747.84375
32.26,1683531747.859375
32.22,1683531747.875
31.70,1683531747.890625
30.43,1683531747.90625
28.38,1683531747.921875
25.57,1683531747.9375
21.96,1683531747.953125
17.50,1683531747.96875
12.37,1683531747.984375
7.13,1683531748.0
2.67,1683531748.015625
-0.19,1683531748.03125
-1.11,1683531748.046875
-0.62,1683531748.0625
0.17,1683531748.078125
-0.04,1683531748.09375
-2.20,1683531748.109375
-6.76,1683531748.125
-13.95,1683531748.140625
-24.03,1683531748.15625
-37.31,1683531748.171875
-53.61,1683531748.1875
-71.60,1683531748.203125
-88.56,1683531748.21875
-100.87,1683531748.234375
-105.21,1683531748.25
-99.92,1683531748.265625
-85.65,1683531748.28125
-65.15,1683531748.296875
-42.16,1683531748.3125
-20.09,1683531748.328125
-1.22,1683531748.34375
13.54,1683531748.359375
24.23,1683531748.375
31.27,1683531748.390625
35.19,1683531748.40625
36.45,1683531748.421875
35.57,1683531748.4375
33.17,1683531748.453125
30.00,1683531748.46875
26.82,1683531748.484375
24.28,1683531748.5
22.78,1683531748.515625
22.39,1683531748.53125
22.95,1683531748.546875
24.13,1683531748.5625
25.59,1683531748.578125
27.08,1683531748.59375
28.44,1683531748.609375
29.59,1683531748.625
30.43,1683531748.640625
30.80,1683531748.65625
30.46,1683531748.671875
29.21,1683531748.6875
26.91,1683531748.703125
23.62,1683531748.71875
19.68,1683531748.734375
15.55,1683531748.75
11.76,1683531748.765625
8.52,1683531748.78125
5.62,1683531748.796875
2.24,1683531748.8125
-2.70,1683531748.828125
-10.19,1683531748.84375
-20.46,1683531748.859375
-32.79,1683531748.875
-45.63,1683531748.890625
-57.10,1683531748.90625
-65.71,1683531748.921875
-70.74,1683531748.9375
-72.25,1683531748.953125
-70.69,1683531748.96875
-66.37,1683531748.984375
-59.30,1683531749.0
-49.24,1683531749.015625
-36.24,1683531749.03125
-20.96,1683531749.046875
-4.71,1683531749.0625
10.83,1683531749.078125
24.29,1683531749.09375
34.97,1683531749.109375
42.96,1683531749.125
48.91,1683531749.140625
53.50,1683531749.15625
57.05,1683531749.171875
59.40,1683531749.1875
60.11,1683531749.203125
58.83,1683531749.21875
55.61,1683531749.234375
51.09,1683531749.25
46.24,1683531749.265625
41.98,1683531749.28125
38.76,1683531749.296875
36.45,1683531749.3125
34.47,1683531749.328125
32.17,1683531749.34375
29.18,1683531749.359375
25.63,1683531749.375
21.94,1683531749.390625
18.58,1683531749.40625
15.82,1683531749.421875
13.60,1683531749.4375
11.76,1683531749.453125
10.14,1683531749.46875
8.75,1683531749.484375
7.60,1683531749.5
6.54,1683531749.515625
5.17,1683531749.53125
2.85,1683531749.546875
-0.97,1683531749.5625
-6.51,1683531749.578125
-13.44,1683531749.59375
-20.94,1683531749.609375
-27.97,1683531749.625
-33.63,1683531749.640625
-37.49,1683531749.65625
-39.80,1683531749.671875
-41.41,1683531749.6875
-43.44,1683531749.703125
-46.84,1683531749.71875
-52.01,1683531749.734375
-58.53,1683531749.75
-65.30,1683531749.765625
-70.78,1683531749.78125
-73.47,1683531749.796875
-72.39,1683531749.8125
-67.22,1683531749.828125
-58.39,1683531749.84375
-46.80,1683531749.859375
-33.58,1683531749.875
-19.83,1683531749.890625
-6.55,1683531749.90625
5.50,1683531749.921875
15.71,1683531749.9375
23.64,1683531749.953125
29.04,1683531749.96875
31.89,1683531749.984375
32.37,1683531750.0
30.93,1683531750.015625
28.17,1683531750.03125
24.74,1683531750.046875
21.18,1683531750.0625
17.94,1683531750.078125
15.29,1683531750.09375
13.38,1683531750.109375
12.24,1683531750.125
11.79,1683531750.140625
11.87,1683531750.15625
12.29,1683531750.171875
12.92,1683531750.1875
13.68,1683531750.203125
14.54,1683531750.21875
15.36,1683531750.234375
15.82,1683531750.25
15.40,1683531750.265625
13.51,1683531750.28125
9.81,1683531750.296875
4.41,1683531750.3125
-2.03,1683531750.328125
-8.58,1683531750.34375
-14.36,1683531750.359375
-19.00,1683531750.375
-22.78,1683531750.390625
-26.44,1683531750.40625
-30.80,1683531750.421875
-36.41,1683531750.4375
-43.32,1683531750.453125
-51.12,1683531750.46875
-59.01,1683531750.484375
-65.99,1683531750.5
-70.92,1683531750.515625
-72.65,1683531750.53125
-70.20,1683531750.546875
-63.03,1683531750.5625
-51.31,1683531750.578125
-36.08,1683531750.59375
-19.03,1683531750.609375
-2.04,1683531750.625
13.39,1683531750.640625
26.43,1683531750.65625
36.95,1683531750.671875
45.25,1683531750.6875
51.58,1683531750.703125
56.00,1683531750.71875
58.34,1683531750.734375
58.45,1683531750.75
56.45,1683531750.765625
52.79,1683531750.78125
48.15,1683531750.796875
43.12,1683531750.8125
38.01,1683531750.828125
32.77,1683531750.84375
27.24,1683531750.859375
21.46,1683531750.875
15.99,1683531750.890625
11.92,1683531750.90625
10.49,1683531750.921875
12.53,1683531750.9375
17.95,1683531750.953125
25.51,1683531750.96875
33.13,1683531750.984375
38.60,1683531751.0
40.31,1683531751.015625
37.69,1683531751.03125
31.19,1683531751.046875
21.84,1683531751.0625
10.79,1683531751.078125
-1.00,1683531751.09375
-12.84,1683531751.109375
-24.06,1683531751.125
-34.06,1683531751.140625
-42.38,1683531751.15625
-48.89,1683531751.171875
-53.87,1683531751.1875
-57.80,1683531751.203125
-60.89,1683531751.21875
-62.72,1683531751.234375
-62.23,1683531751.25
-58.15,1683531751.265625
-49.62,1683531751.28125
-36.79,1683531751.296875
-20.88,1683531751.3125
-3.86,1683531751.328125
12.27,1683531751.34375
26.08,1683531751.359375
36.93,1683531751.375
44.80,1683531751.390625
49.92,1683531751.40625
52.41,1683531751.421875
52.26,1683531751.4375
49.52,1683531751.453125
44.59,1683531751.46875
38.31,1683531751.484375
31.79,1683531751.5
26.09,1683531751.515625
21.85,1683531751.53125
19.19,1683531751.546875
17.77,1683531751.5625
17.07,1683531751.578125
16.66,1683531751.59375
16.27,1683531751.609375
15.84,1683531751.625
15.34,1683531751.640625
14.78,1683531751.65625
14.07,1683531751.671875
13.04,1683531751.6875
11.51,1683531751.703125
9.25,1683531751.71875
6.09,1683531751.734375
1.92,1683531751.75
-3.14,1683531751.765625
-8.78,1683531751.78125
-14.53,1683531751.796875
-19.95,1683531751.8125
-24.76,1683531751.828125
-28.95,1683531751.84375
-32.79,1683531751.859375
-36.61,1683531751.875
-40.68,1683531751.890625
-45.04,1683531751.90625
-49.45,1683531751.921875
-53.42,1683531751.9375
-56.22,1683531751.953125
-56.90,1683531751.96875
-54.47,1683531751.984375
-48.13,1683531752.0
-37.59,1683531752.015625
-23.29,1683531752.03125
-6.43,1683531752.046875
11.30,1683531752.0625
28.21,1683531752.078125
42.97,1683531752.09375
54.80,1683531752.109375
63.37,1683531752.125
68.55,1683531752.140625
70.36,1683531752.15625
68.93,1683531752.171875
64.73,1683531752.1875
58.61,1683531752.203125
51.70,1683531752.21875
45.10,1683531752.234375
39.57,1683531752.25
35.32,1683531752.265625
32.06,1683531752.28125
29.26,1683531752.296875
26.48,1683531752.3125
23.57,1683531752.328125
20.73,1683531752.34375
18.38,1683531752.359375
16.88,1683531752.375
16.32,1683531752.390625
16.45,1683531752.40625
16.75,1683531752.421875
16.63,1683531752.4375
15.68,1683531752.453125
13.72,1683531752.46875
10.89,1683531752.484375
7.44,1683531752.5
3.63,1683531752.515625
-0.33,1683531752.53125
-4.31,1683531752.546875
-8.23,1683531752.5625
-12.14,1683531752.578125
-16.26,1683531752.59375
-21.07,1683531752.609375
-27.13,1683531752.625
-34.81,1683531752.640625
-43.88,1683531752.65625
-53.26,1683531752.671875
-61.23,1683531752.6875
-65.89,1683531752.703125
-65.95,1683531752.71875
-61.29,1683531752.734375
-53.04,1683531752.75
-43.15,1683531752.765625
-33.60,1683531752.78125
-25.78,1683531752.796875
-20.12,1683531752.8125
-16.32,1683531752.828125
-13.78,1683531752.84375
-12.05,1683531752.859375
-11.00,1683531752.875
-10.84,1683531752.890625
-11.83,1683531752.90625
-14.11,1683531752.921875
-17.53,1683531752.9375
-21.62,1683531752.953125
-25.73,1683531752.96875
-29.15,1683531752.984375
-31.27,1683531753.0
-31.72,1683531753.015625
-30.44,1683531753.03125
-27.54,1683531753.046875
-23.29,1683531753.0625
-18.00,1683531753.078125
-12.08,1683531753.09375
-6.06,1683531753.109375
-0.63,1683531753.125
3.50,1683531753.140625
5.83,1683531753.15625
6.24,1683531753.171875
5.14,1683531753.1875
3.22,1683531753.203125
1.16,1683531753.21875
-0.70,1683531753.234375
-2.60,1683531753.25
-5.17,1683531753.265625
-9.23,1683531753.28125
-15.28,1683531753.296875
-23.12,1683531753.3125
-31.70,1683531753.328125
-39.29,1683531753.34375
-43.99,1683531753.359375
-44.32,1683531753.375
-39.68,1683531753.390625
-30.55,1683531753.40625
-18.22,1683531753.421875
-4.36,1683531753.4375
9.42,1683531753.453125
21.88,1683531753.46875
32.20,1683531753.484375
39.95,1683531753.5
44.97,1683531753.515625
47.30,1683531753.53125
47.22,1683531753.546875
45.18,1683531753.5625
41.79,1683531753.578125
37.64,1683531753.59375
33.28,1683531753.609375
29.05,1683531753.625
25.15,1683531753.640625
21.68,1683531753.65625
18.71,1683531753.671875
16.40,1683531753.6875
14.93,1683531753.703125
14.49,1683531753.71875
15.10,1683531753.734375
16.56,1683531753.75
18.41,1683531753.765625
20.02,1683531753.78125
20.87,1683531753.796875
20.66,1683531753.8125
19.49,1683531753.828125
17.74,1683531753.84375
15.87,1683531753.859375
14.21,1683531753.875
12.76,1683531753.890625
11.16,1683531753.90625
8.78,1683531753.921875
4.91,1683531753.9375
-1.00,1683531753.953125
-9.11,1683531753.96875
-19.07,1683531753.984375
-29.97,1683531754.0
-40.42,1683531754.015625
-48.72,1683531754.03125
-53.24,1683531754.046875
-52.82,1683531754.0625
-47.12,1683531754.078125
-36.76,1683531754.09375
-23.19,1683531754.109375
-8.30,1683531754.125
6.08,1683531754.140625
18.58,1683531754.15625
28.48,1683531754.171875
35.60,1683531754.1875
40.14,1683531754.203125
42.39,1683531754.21875
42.67,1683531754.234375
41.27,1683531754.25
38.51,1683531754.265625
34.79,1683531754.28125
30.54,1683531754.296875
26.15,1683531754.3125
21.94,1683531754.328125
18.07,1683531754.34375
14.65,1683531754.359375
11.78,1683531754.375
9.56,1683531754.390625
8.15,1683531754.40625
7.61,1683531754.421875
7.82,1683531754.4375
8.44,1683531754.453125
8.92,1683531754.46875
8.69,1683531754.484375
7.32,1683531754.5
4.67,1683531754.515625
0.92,1683531754.53125
-3.45,1683531754.546875
-7.85,1683531754.5625
-11.73,1683531754.578125
-14.71,1683531754.59375
-16.73,1683531754.609375
-18.04,1683531754.625
-19.14,1683531754.640625
-20.63,1683531754.65625
-22.95,1683531754.671875
-26.13,1683531754.6875
-29.69,1683531754.703125
-32.68,1683531754.71875
-33.90,1683531754.734375
-32.33,1683531754.75
-27.42,1683531754.765625
-19.37,1683531754.78125
-9.03,1683531754.796875
2.36,1683531754.8125
13.43,1683531754.828125
23.10,1683531754.84375
30.62,1683531754.859375
35.72,1683531754.875
38.43,1683531754.890625
39.00,1683531754.90625
37.80,1683531754.921875
35.25,1683531754.9375
31.84,1683531754.953125
28.04,1683531754.96875
24.27,1683531754.984375
20.87,1683531755.0
18.04,1683531755.015625
15.88,1683531755.03125
14.42,1683531755.046875
13.66,1683531755.0625
13.53,1683531755.078125
13.94,1683531755.09375
14.73,1683531755.109375
15.67,1683531755.125
16.48,1683531755.140625
16.79,1683531755.15625
16.28,1683531755.171875
14.70,1683531755.1875
12.03,1683531755.203125
8.47,1683531755.21875
4.43,1683531755.234375
0.43,1683531755.25
-3.04,1683531755.265625
-5.84,1683531755.28125
-8.21,1683531755.296875
-10.84,1683531755.3125
-14.52,1683531755.328125
-19.82,1683531755.34375
-26.58,1683531755.359375
-33.76,1683531755.375
-39.69,1683531755.390625
-42.62,1683531755.40625
-41.44,1683531755.421875
-36.18,1683531755.4375
-27.91,1683531755.453125
-18.41,1683531755.46875
-9.43,1683531755.484375
-2.17,1683531755.5
2.90,1683531755.515625
5.80,1683531755.53125
6.74,1683531755.546875
5.82,1683531755.5625
3.14,1683531755.578125
-1.06,1683531755.59375
-6.24,1683531755.609375
-11.57,1683531755.625
-16.20,1683531755.640625
-19.47,1683531755.65625
-21.15,1683531755.671875
-21.33,1683531755.6875
-20.31,1683531755.703125
-18.44,1683531755.71875
-16.02,1683531755.734375
-13.32,1683531755.75
-10.62,1683531755.765625
-8.24,1683531755.78125
-6.45,1683531755.796875
-5.45,1683531755.8125
-5.24,1683531755.828125
-5.75,1683531755.84375
-6.82,1683531755.859375
-8.36,1683531755.875
-10.30,1683531755.890625
-12.68,1683531755.90625
-15.55,1683531755.921875
-19.07,1683531755.9375
-23.46,1683531755.953125
-28.91,1683531755.96875
-35.39,1683531755.984375
-42.44,1683531756.0
-49.08,1683531756.015625
-53.92,1683531756.03125
-55.50,1683531756.046875
-52.75,1683531756.0625
-45.39,1683531756.078125
-34.05,1683531756.09375
-20.14,1683531756.109375
-5.43,1683531756.125
8.43,1683531756.140625
20.24,1683531756.15625
29.40,1683531756.171875
35.83,1683531756.1875
39.82,1683531756.203125
41.77,1683531756.21875
42.10,1683531756.234375
41.14,1683531756.25
39.18,1683531756.265625
36.52,1683531756.28125
33.46,1683531756.296875
30.39,1683531756.3125
27.67,1683531756.328125
25.55,1683531756.34375
24.16,1683531756.359375
23.44,1683531756.375
23.20,1683531756.390625
23.14,1683531756.40625
22.99,1683531756.421875
22.46,1683531756.4375
21.34,1683531756.453125
19.51,1683531756.46875
16.91,1683531756.484375
13.63,1683531756.5
9.82,1683531756.515625
5.70,1683531756.53125
1.44,1683531756.546875
-2.88,1683531756.5625
-7.32,1683531756.578125
-12.13,1683531756.59375
-17.56,1683531756.609375
-23.85,1683531756.625
-30.97,1683531756.640625
-38.54,1683531756.65625
-45.71,1683531756.671875
-51.28,1683531756.6875
-53.91,1683531756.703125
-52.50,1683531756.71875
-46.59,1683531756.734375
-36.52,1683531756.75
-23.46,1683531756.765625
-9.10,1683531756.78125
4.85,1683531756.796875
16.98,1683531756.8125
26.50,1683531756.828125
33.21,1683531756.84375
37.30,1683531756.859375
39.13,1683531756.875
39.05,1683531756.890625
37.40,1683531756.90625
34.58,1683531756.921875
31.08,1683531756.9375
27.50,1683531756.953125
24.35,1683531756.96875
21.96,1683531756.984375
20.30,1683531757.0
19.09,1683531757.015625
17.97,1683531757.03125
16.65,1683531757.046875
15.08,1683531757.0625
13.38,1683531757.078125
11.74,1683531757.09375
10.18,1683531757.109375
8.56,1683531757.125
6.54,1683531757.140625
3.82,1683531757.15625
0.25,1683531757.171875
-4.01,1683531757.1875
-8.62,1683531757.203125
-13.15,1683531757.21875
-17.31,1683531757.234375
-21.10,1683531757.25
-24.75,1683531757.265625
-28.64,1683531757.28125
-33.17,1683531757.296875
-38.57,1683531757.3125
-44.76,1683531757.328125
-51.29,1683531757.34375
-57.26,1683531757.359375
-61.43,1683531757.375
-62.50,1683531757.390625
-59.49,1683531757.40625
-52.12,1683531757.421875
-40.97,1683531757.4375
-27.33,1683531757.453125
-12.83,1683531757.46875
1.02,1683531757.484375
13.13,1683531757.5
22.92,1683531757.515625
30.19,1683531757.53125
34.90,1683531757.546875
37.08,1683531757.5625
36.87,1683531757.578125
34.52,1683531757.59375
30.53,1683531757.609375
25.59,1683531757.625
20.42,1683531757.640625
15.65,1683531757.65625
11.69,1683531757.671875
8.71,1683531757.6875
6.69,1683531757.703125
5.48,1683531757.71875
4.86,1683531757.734375
4.64,1683531757.75
4.58,1683531757.765625
4.49,1683531757.78125
4.12,1683531757.796875
3.28,1683531757.8125
1.82,1683531757.828125
-0.27,1683531757.84375
-2.85,1683531757.859375
-5.68,1683531757.875
-8.51,1683531757.890625
-11.19,1683531757.90625
-13.79,1683531757.921875
-16.57,1683531757.9375
-19.93,1683531757.953125
-24.25,1683531757.96875
-29.65,1683531757.984375
-35.84,1683531758.0
-42.02,1683531758.015625
-46.97,1683531758.03125
-49.37,1683531758.046875
-48.12,1683531758.0625
-42.67,1683531758.078125
-33.21,1683531758.09375
-20.64,1683531758.109375
-6.38,1683531758.125
7.97,1683531758.140625
20.98,1683531758.15625
31.58,1683531758.171875
39.21,1683531758.1875
43.74,1683531758.203125
45.38,1683531758.21875
44.59,1683531758.234375
41.90,1683531758.25
37.85,1683531758.265625
32.97,1683531758.28125
27.74,1683531758.296875
22.61,1683531758.3125
17.95,1683531758.328125
13.99,1683531758.34375
10.84,1683531758.359375
8.43,1683531758.375
6.60,1683531758.390625
5.17,1683531758.40625
3.96,1683531758.421875
2.82,1683531758.4375
1.64,1683531758.453125
0.31,1683531758.46875
-1.26,1683531758.484375
-3.14,1683531758.5
-5.37,1683531758.515625
-8.02,1683531758.53125
-11.20,1683531758.546875
-15.10,1683531758.5625
-19.99,1683531758.578125
-26.15,1683531758.59375
-33.68,1683531758.609375
-42.41,1683531758.625
-51.73,1683531758.640625
-60.65,1683531758.65625
-67.82,1683531758.671875
-71.86,1683531758.6875
-71.68,1683531758.703125
-66.80,1683531758.71875
-57.51,1683531758.734375
-44.80,1683531758.75
-30.15,1683531758.765625
-15.12,1683531758.78125
-1.04,1683531758.796875
11.17,1683531758.8125
21.04,1683531758.828125
28.48,1683531758.84375
33.61,1683531758.859375
36.69,1683531758.875
38.04,1683531758.890625
38.00,1683531758.90625
36.93,1683531758.921875
35.17,1683531758.9375
32.99,1683531758.953125
30.65,1683531758.96875
28.34,1683531758.984375
26.25,1683531759.0
24.55,1683531759.015625
23.37,1683531759.03125
22.74,1683531759.046875
22.57,1683531759.0625
22.67,1683531759.078125
22.67,1683531759.09375
22.20,1683531759.109375
20.91,1683531759.125
18.61,1683531759.140625
15.35,1683531759.15625
11.37,1683531759.171875
7.06,1683531759.1875
2.77,1683531759.203125
-1.28,1683531759.21875
-5.12,1683531759.234375
-9.12,1683531759.25
-13.81,1683531759.265625
-19.77,1683531759.28125
-27.32,1683531759.296875
-36.17,1683531759.3125
-45.26,1683531759.328125
-52.83,1683531759.34375
-56.93,1683531759.359375
-55.91,1683531759.375
-49.17,1683531759.390625
-37.34,1683531759.40625
-22.14,1683531759.421875
-5.79,1683531759.4375
9.62,1683531759.453125
22.70,1683531759.46875
32.78,1683531759.484375
39.78,1683531759.5
43.80,1683531759.515625
45.03,1683531759.53125
43.64,1683531759.546875
40.01,1683531759.5625
34.81,1683531759.578125
28.93,1683531759.59375
23.29,1683531759.609375
18.54,1683531759.625
14.95,1683531759.640625
12.40,1683531759.65625
10.61,1683531759.671875
9.29,1683531759.6875
8.27,1683531759.703125
7.50,1683531759.71875
6.93,1683531759.734375
6.36,1683531759.75
5.43,1683531759.765625
3.74,1683531759.78125
0.99,1683531759.796875
-2.85,1683531759.8125
-7.49,1683531759.828125
-12.48,1683531759.84375
-17.34,1683531759.859375
-21.75,1683531759.875
-25.70,1683531759.890625
-29.41,1683531759.90625
-33.27,1683531759.921875
-37.73,1683531759.9375
-43.12,1683531759.953125
-49.55,1683531759.96875
-56.76,1683531759.984375
-63.95,1683531760.0
-69.87,1683531760.015625
-72.94,1683531760.03125
-71.76,1683531760.046875
-65.52,1683531760.0625
-54.31,1683531760.078125
-39.18,1683531760.09375
-21.85,1683531760.109375
-4.26,1683531760.125
11.94,1683531760.140625
25.57,1683531760.15625
36.04,1683531760.171875
43.12,1683531760.1875
46.74,1683531760.203125
46.92,1683531760.21875
43.81,1683531760.234375
37.88,1683531760.25
29.93,1683531760.265625
21.05,1683531760.28125
12.43,1683531760.296875
5.04,1683531760.3125
-0.60,1683531760.328125
-4.47,1683531760.34375
-6.92,1683531760.359375
-8.47,1683531760.375
-9.55,1683531760.390625
-10.45,1683531760.40625
-11.28,1683531760.421875
-12.12,1683531760.4375
-13.07,1683531760.453125
-14.33,1683531760.46875
-16.05,1683531760.484375
-18.34,1683531760.5
-21.13,1683531760.515625
-24.19,1683531760.53125
-27.21,1683531760.546875
-29.97,1683531760.5625
-32.52,1683531760.578125
-35.24,1683531760.59375
-38.72,1683531760.609375
-43.44,1683531760.625
-49.33,1683531760.640625
-55.52,1683531760.65625
-60.35,1683531760.671875
-61.87,1683531760.6875
-58.47,1683531760.703125
-49.50,1683531760.71875
-35.51,1683531760.734375
-18.04,1683531760.75
0.87,1683531760.765625
19.26,1683531760.78125
35.65,1683531760.796875
49.11,1683531760.8125
59.26,1683531760.828125
66.11,1683531760.84375
70.03,1683531760.859375
71.73,1683531760.875
72.06,1683531760.890625
71.82,1683531760.90625
71.45,1683531760.921875
70.93,1683531760.9375
69.83,1683531760.953125
67.63,1683531760.96875
64.05,1683531760.984375
59.23,1683531761.0
53.68,1683531761.015625
47.94,1683531761.03125
42.36,1683531761.046875
36.93,1683531761.0625
31.44,1683531761.078125
25.72,1683531761.09375
19.90,1683531761.109375
14.40,1683531761.125
9.77,1683531761.140625
6.39,1683531761.15625
4.22,1683531761.171875
2.78,1683531761.1875
1.37,1683531761.203125
-0.66,1683531761.21875
-3.73,1683531761.234375
-7.92,1683531761.25
-13.02,1683531761.265625
-18.61,1683531761.28125
-24.03,1683531761.296875
-28.37,1683531761.3125
-30.55,1683531761.328125
-29.45,1683531761.34375
-24.24,1683531761.359375
-14.79,1683531761.375
-1.72,1683531761.390625
13.64,1683531761.40625
29.60,1683531761.421875
44.49,1683531761.4375
56.95,1683531761.453125
66.10,1683531761.46875
71.48,1683531761.484375
72.98,1683531761.5
70.83,1683531761.515625
65.53,1683531761.53125
57.87,1683531761.546875
48.82,1683531761.5625
39.41,1683531761.578125
30.46,1683531761.59375
22.51,1683531761.609375
15.76,1683531761.625
10.15,1683531761.640625
5.53,1683531761.65625
1.81,1683531761.671875
-1.02,1683531761.6875
-2.88,1683531761.703125
-3.75,1683531761.71875
-3.73,1683531761.734375
-3.13,1683531761.75
-2.38,1683531761.765625
-1.94,1683531761.78125
-2.16,1683531761.796875
-3.22,1683531761.8125
-5.15,1683531761.828125
-7.89,1683531761.84375
-11.35,1683531761.859375
-15.51,1683531761.875
-20.37,1683531761.890625
-26.01,1683531761.90625
-32.48,1683531761.921875
-39.68,1683531761.9375
-47.21,1683531761.953125
-54.23,1683531761.96875
-59.47,1683531761.984375
-61.52,1683531762.0
-59.22,1683531762.015625
-52.13,1683531762.03125
-40.74,1683531762.046875
-26.45,1683531762.0625
-11.09,1683531762.078125
3.56,1683531762.09375
16.20,1683531762.109375
26.21,1683531762.125
33.49,1683531762.140625
38.13,1683531762.15625
40.29,1683531762.171875
40.05,1683531762.1875
37.60,1683531762.203125
33.40,1683531762.21875
28.22,1683531762.234375
23.02,1683531762.25
18.63,1683531762.265625
15.47,1683531762.28125
13.47,1683531762.296875
12.18,1683531762.3125
11.11,1683531762.328125
9.98,1683531762.34375
8.85,1683531762.359375
8.00,1683531762.375
7.73,1683531762.390625
8.11,1683531762.40625
9.01,1683531762.421875
10.05,1683531762.4375
10.80,1683531762.453125
10.84,1683531762.46875
9.82,1683531762.484375
7.57,1683531762.5
4.12,1683531762.515625
-0.28,1683531762.53125
-5.27,1683531762.546875
-10.47,1683531762.5625
-15.75,1683531762.578125
-21.23,1683531762.59375
-27.27,1683531762.609375
-34.21,1683531762.625
-42.07,1683531762.640625
-50.33,1683531762.65625
-57.88,1683531762.671875
-63.24,1683531762.6875
-64.90,1683531762.703125
-61.84,1683531762.71875
-53.79,1683531762.734375
-41.48,1683531762.75
-26.38,1683531762.765625
-10.39,1683531762.78125
4.72,1683531762.796875
17.70,1683531762.8125
27.95,1683531762.828125
35.45,1683531762.84375
40.38,1683531762.859375
42.98,1683531762.875
43.35,1683531762.890625
41.61,1683531762.90625
38.09,1683531762.921875
33.38,1683531762.9375
28.25,1683531762.953125
23.40,1683531762.96875
19.27,1683531762.984375
15.86,1683531763.0
12.94,1683531763.015625
10.25,1683531763.03125
7.72,1683531763.046875
5.57,1683531763.0625
4.14,1683531763.078125
3.68,1683531763.09375
4.10,1683531763.109375
4.97,1683531763.125
5.61,1683531763.140625
5.35,1683531763.15625
3.83,1683531763.171875
1.08,1683531763.1875
-2.49,1683531763.203125
-6.28,1683531763.21875
-9.77,1683531763.234375
-12.76,1683531763.25
-15.42,1683531763.265625
-18.26,1683531763.28125
-21.88,1683531763.296875
-26.67,1683531763.3125
-32.39,1683531763.328125
-38.11,1683531763.34375
-42.35,1683531763.359375
-43.50,1683531763.375
-40.44,1683531763.390625
-32.91,1683531763.40625
-21.70,1683531763.421875
-8.29,1683531763.4375
5.58,1683531763.453125
18.44,1683531763.46875
29.34,1683531763.484375
37.84,1683531763.5
43.77,1683531763.515625
47.07,1683531763.53125
47.75,1683531763.546875
45.95,1683531763.5625
42.07,1683531763.578125
36.74,1683531763.59375
30.76,1683531763.609375
24.85,1683531763.625
19.55,1683531763.640625
15.10,1683531763.65625
11.54,1683531763.671875
8.83,1683531763.6875
6.88,1683531763.703125
5.64,1683531763.71875
5.03,1683531763.734375
4.82,1683531763.75
4.68,1683531763.765625
4.18,1683531763.78125
2.89,1683531763.796875
0.57,1683531763.8125
-2.77,1683531763.828125
-6.89,1683531763.84375
-11.40,1683531763.859375
-15.99,1683531763.875
-20.48,1683531763.890625
-24.93,1683531763.90625
-29.65,1683531763.921875
-35.05,1683531763.9375
-41.49,1683531763.953125
-49.06,1683531763.96875
-57.36,1683531763.984375
-65.48,1683531764.0
-71.99,1683531764.015625
-75.34,1683531764.03125
-74.24,1683531764.046875
-68.09,1683531764.0625
-57.23,1683531764.078125
-42.88,1683531764.09375
-26.81,1683531764.109375
-10.89,1683531764.125
3.36,1683531764.140625
14.98,1683531764.15625
23.61,1683531764.171875
29.34,1683531764.1875
32.51,1683531764.203125
33.53,1683531764.21875
32.78,1683531764.234375
30.69,1683531764.25
27.74,1683531764.265625
24.50,1683531764.28125
21.57,1683531764.296875
19.49,1683531764.3125
18.65,1683531764.328125
19.16,1683531764.34375
20.89,1683531764.359375
23.42,1683531764.375
26.22,1683531764.390625
28.69,1683531764.40625
30.36,1683531764.421875
30.89,1683531764.4375
30.13,1683531764.453125
28.14,1683531764.46875
25.00,1683531764.484375
20.88,1683531764.5
15.90,1683531764.515625
10.23,1683531764.53125
4.11,1683531764.546875
-2.21,1683531764.5625
-8.53,1683531764.578125
-14.81,1683531764.59375
-21.31,1683531764.609375
-28.49,1683531764.625
-36.89,1683531764.640625
-46.75,1683531764.65625
-57.76,1683531764.671875
-68.86,1683531764.6875
-78.35,1683531764.703125
-84.25,1683531764.71875
-84.80,1683531764.734375
-79.10,1683531764.75
-67.39,1683531764.765625
-51.02,1683531764.78125
-32.14,1683531764.796875
-13.07,1683531764.8125
4.24,1683531764.828125
18.61,1683531764.84375
29.58,1683531764.859375
37.19,1683531764.875
41.67,1683531764.890625
43.21,1683531764.90625
41.98,1683531764.921875
38.26,1683531764.9375
32.74,1683531764.953125
26.49,1683531764.96875
20.81,1683531764.984375
16.86,1683531765.0
15.26,1683531765.015625
15.99,1683531765.03125
18.46,1683531765.046875
21.88,1683531765.0625
25.58,1683531765.078125
29.25,1683531765.09375
32.73,1683531765.109375
35.85,1683531765.125
38.12,1683531765.140625
38.83,1683531765.15625
37.26,1683531765.171875
33.08,1683531765.1875
26.53,1683531765.203125
18.40,1683531765.21875
9.74,1683531765.234375
1.47,1683531765.25
-5.86,1683531765.265625
-12.09,1683531765.28125
-17.34,1683531765.296875
-21.83,1683531765.3125
-25.84,1683531765.328125
-29.76,1683531765.34375
-34.04,1683531765.359375
-39.11,1683531765.375
-45.09,1683531765.390625
-51.50,1683531765.40625
-57.13,1683531765.421875
-60.31,1683531765.4375
-59.49,1683531765.453125
-53.90,1683531765.46875
-43.87,1683531765.484375
-30.88,1683531765.5
-16.94,1683531765.515625
-3.97,1683531765.53125
6.83,1683531765.546875
15.08,1683531765.5625
21.02,1683531765.578125
25.05,1683531765.59375
27.45,1683531765.609375
28.29,1683531765.625
27.57,1683531765.640625
25.45,1683531765.65625
22.29,1683531765.671875
18.58,1683531765.6875
14.78,1683531765.703125
11.20,1683531765.71875
8.07,1683531765.734375
5.62,1683531765.75
4.11,1683531765.765625
3.81,1683531765.78125
4.80,1683531765.796875
6.83,1683531765.8125
9.33,1683531765.828125
11.53,1683531765.84375
12.73,1683531765.859375
12.52,1683531765.875
10.89,1683531765.890625
8.17,1683531765.90625
4.87,1683531765.921875
1.54,1683531765.9375
-1.45,1683531765.953125
-4.02,1683531765.96875
-6.42,1683531765.984375
-9.17,1683531766.0
-12.93,1683531766.015625
-18.25,1683531766.03125
-25.29,1683531766.046875
-33.63,1683531766.0625
-42.21,1683531766.078125
-49.47,1683531766.09375
-53.71,1683531766.109375
-53.46,1683531766.125
-48.03,1683531766.140625
-37.64,1683531766.15625
-23.54,1683531766.171875
-7.65,1683531766.1875
7.93,1683531766.203125
21.39,1683531766.21875
31.62,1683531766.234375
38.38,1683531766.25
42.09,1683531766.265625
43.48,1683531766.28125
43.26,1683531766.296875
41.89,1683531766.3125
39.60,1683531766.328125
36.53,1683531766.34375
32.87,1683531766.359375
29.00,1683531766.375
25.39,1683531766.390625
22.48,1683531766.40625
20.57,1683531766.421875
19.81,1683531766.4375
20.13,1683531766.453125
21.36,1683531766.46875
23.16,1683531766.484375
25.09,1683531766.5
26.60,1683531766.515625
27.09,1683531766.53125
26.13,1683531766.546875
23.61,1683531766.5625
19.76,1683531766.578125
15.03,1683531766.59375
9.91,1683531766.609375
4.64,1683531766.625
-0.80,1683531766.640625
-6.77,1683531766.65625
-13.71,1683531766.671875
-22.04,1683531766.6875
-31.87,1683531766.703125
-42.84,1683531766.71875
-54.05,1683531766.734375
-64.02,1683531766.75
-70.96,1683531766.765625
-73.17,1683531766.78125
-69.48,1683531766.796875
-59.76,1683531766.8125
-44.96,1683531766.828125
-26.98,1683531766.84375
-8.09,1683531766.859375
9.58,1683531766.875
24.47,1683531766.890625
35.81,1683531766.90625
43.45,1683531766.921875
47.68,1683531766.9375
48.99,1683531766.953125
47.91,1683531766.96875
45.03,1683531766.984375
40.92,1683531767.0
36.14,1683531767.015625
31.23,1683531767.03125
26.69,1683531767.046875
22.92,1683531767.0625
20.27,1683531767.078125
18.94,1683531767.09375
19.02,1683531767.109375
20.34,1683531767.125
22.53,1683531767.140625
25.06,1683531767.15625
27.29,1683531767.171875
28.69,1683531767.1875
28.90,1683531767.203125
27.79,1683531767.21875
25.50,1683531767.234375
22.35,1683531767.25
18.69,1683531767.265625
14.82,1683531767.28125
10.82,1683531767.296875
6.51,1683531767.3125
1.49,1683531767.328125
-4.84,1683531767.34375
-12.97,1683531767.359375
-23.18,1683531767.375
-35.22,1683531767.390625
-48.21,1683531767.40625
-60.59,1683531767.421875
-70.38,1683531767.4375
-75.68,1683531767.453125
-75.19,1683531767.46875
-68.75,1683531767.484375
-57.32,1683531767.5
-42.83,1683531767.515625
-27.49,1683531767.53125
-13.22,1683531767.546875
-1.33,1683531767.5625
7.64,1683531767.578125
13.61,1683531767.59375
16.76,1683531767.609375
17.30,1683531767.625
15.45,1683531767.640625
11.56,1683531767.65625
6.16,1683531767.671875
-0.02,1683531767.6875
-6.20,1683531767.703125
-11.71,1683531767.71875
-16.18,1683531767.734375
-19.60,1683531767.75
-22.19,1683531767.765625
-24.23,1683531767.78125
-25.86,1683531767.796875
-26.99,1683531767.8125
-27.38,1683531767.828125
-26.83,1683531767.84375
-25.38,1683531767.859375
-23.40,1683531767.875
-21.45,1683531767.890625
-20.08,1683531767.90625
-19.58,1683531767.921875
-19.90,1683531767.9375
-20.65,1683531767.953125
-21.36,1683531767.96875
-21.73,1683531767.984375
-21.83,1683531768.0
-22.15,1683531768.015625
-23.43,1683531768.03125
-26.34,1683531768.046875
-31.12,1683531768.0625
-37.31,1683531768.078125
-43.68,1683531768.09375
-48.50,1683531768.109375
-49.90,1683531768.125
-46.43,1683531768.140625
-37.46,1683531768.15625
-23.44,1683531768.171875
-5.78,1683531768.1875
13.45,1683531768.203125
32.11,1683531768.21875
48.45,1683531768.234375
61.45,1683531768.25
70.86,1683531768.265625
76.93,1683531768.28125
80.14,1683531768.296875
80.85,1683531768.3125
79.28,1683531768.328125
75.59,1683531768.34375
70.14,1683531768.359375
63.59,1683531768.375
56.86,1683531768.390625
50.90,1683531768.40625
46.53,1683531768.421875
44.13,1683531768.4375
43.69,1683531768.453125
44.81,1683531768.46875
46.79,1683531768.484375
48.79,1683531768.5
49.85,1683531768.515625
49.09,1683531768.53125
45.89,1683531768.546875
40.10,1683531768.5625
32.31,1683531768.578125
23.63,1683531768.59375
15.35,1683531768.609375
8.36,1683531768.625
2.68,1683531768.640625
-2.62,1683531768.65625
-9.06,1683531768.671875
-18.06,1683531768.6875
-30.34,1683531768.703125
-45.61,1683531768.71875
-62.60,1683531768.734375
-79.40,1683531768.75
-93.86,1683531768.765625
-103.96,1683531768.78125
-108.16,1683531768.796875
-105.68,1683531768.8125
-96.77,1683531768.828125
-82.82,1683531768.84375
-66.07,1683531768.859375
-48.99,1683531768.875
-33.58,1683531768.890625
-20.86,1683531768.90625
-10.75,1683531768.921875
-2.53,1683531768.9375
4.53,1683531768.953125
10.77,1683531768.96875
16.06,1683531768.984375
20.02,1683531769.0
22.44,1683531769.015625
23.56,1683531769.03125
23.95,1683531769.046875
24.25,1683531769.0625
24.88,1683531769.078125
25.87,1683531769.09375
27.02,1683531769.109375
28.08,1683531769.125
28.99,1683531769.140625
29.83,1683531769.15625
30.69,1683531769.171875
31.47,1683531769.1875
31.80,1683531769.203125
31.17,1683531769.21875
29.19,1683531769.234375
25.81,1683531769.25
21.40,1683531769.265625
16.58,1683531769.28125
11.92,1683531769.296875
7.65,1683531769.3125
3.54,1683531769.328125
-0.99,1683531769.34375
-6.64,1683531769.359375
-13.83,1683531769.375
-22.42,1683531769.390625
-31.58,1683531769.40625
-39.90,1683531769.421875
-45.66,1683531769.4375
-47.32,1683531769.453125
-43.96,1683531769.46875
-35.55,1683531769.484375
-23.03,1683531769.5
-8.07,1683531769.515625
7.41,1683531769.53125
21.64,1683531769.546875
33.42,1683531769.5625
42.14,1683531769.578125
47.73,1683531769.59375
50.39,1683531769.609375
50.46,1683531769.625
48.31,1683531769.640625
44.34,1683531769.65625
39.07,1683531769.671875
33.15,1683531769.6875
27.32,1683531769.703125
22.27,1683531769.71875
18.48,1683531769.734375
16.14,1683531769.75
15.09,1683531769.765625
14.93,1683531769.78125
15.18,1683531769.796875
15.43,1683531769.8125
15.44,1683531769.828125
15.15,1683531769.84375
14.56,1683531769.859375
13.58,1683531769.875
12.02,1683531769.890625
9.61,1683531769.90625
6.13,1683531769.921875
1.63,1683531769.9375
-3.58,1683531769.953125
-8.97,1683531769.96875
-14.01,1683531769.984375
-18.37,1683531770.0
-22.07,1683531770.015625
-25.48,1683531770.03125
-29.15,1683531770.046875
-33.64,1683531770.0625
-39.32,1683531770.078125
-46.19,1683531770.09375
-53.78,1683531770.109375
-61.02,1683531770.125
-66.42,1683531770.140625
-68.39,1683531770.15625
-65.71,1683531770.171875
-57.96,1683531770.1875
-45.76,1683531770.203125
-30.63,1683531770.21875
-14.48,1683531770.234375
0.87,1683531770.25
14.11,1683531770.265625
24.64,1683531770.28125
32.38,1683531770.296875
37.53,1683531770.3125
40.32,1683531770.328125
40.91,1683531770.34375
39.46,1683531770.359375
36.29,1683531770.375
31.91,1683531770.390625
27.08,1683531770.40625
22.60,1683531770.421875
19.12,1683531770.4375
16.94,1683531770.453125
16.01,1683531770.46875
15.96,1683531770.484375
16.39,1683531770.5
16.96,1683531770.515625
17.51,1683531770.53125
18.02,1683531770.546875
18.46,1683531770.5625
18.69,1683531770.578125
18.41,1683531770.59375
17.20,1683531770.609375
14.72,1683531770.625
10.89,1683531770.640625
5.93,1683531770.65625
0.36,1683531770.671875
-5.14,1683531770.6875
-10.00,1683531770.703125
-14.02,1683531770.71875
-17.38,1683531770.734375
-20.60,1683531770.75
-24.36,1683531770.765625
-29.18,1683531770.78125
-35.20,1683531770.796875
-42.08,1683531770.8125
-48.92,1683531770.828125
-54.41,1683531770.84375
-57.13,1683531770.859375
-55.87,1683531770.875
-50.04,1683531770.890625
-39.92,1683531770.90625
-26.63,1683531770.921875
-11.87,1683531770.9375
2.55,1683531770.953125
15.18,1683531770.96875
25.16,1683531770.984375
32.22,1683531771.0
36.48,1683531771.015625
38.28,1683531771.03125
37.92,1683531771.046875
35.70,1683531771.0625
32.01,1683531771.078125
27.33,1683531771.09375
22.27,1683531771.109375
17.47,1683531771.125
13.41,1683531771.140625
10.38,1683531771.15625
8.45,1683531771.171875
7.50,1683531771.1875
7.35,1683531771.203125
7.76,1683531771.21875
8.49,1683531771.234375
9.29,1683531771.25
9.87,1683531771.265625
9.89,1683531771.28125
9.02,1683531771.296875
7.08,1683531771.3125
3.99,1683531771.328125
-0.04,1683531771.34375
-4.62,1683531771.359375
-9.26,1683531771.375
-13.56,1683531771.390625
-17.37,1683531771.40625
-20.90,1683531771.421875
-24.68,1683531771.4375
-29.30,1683531771.453125
-35.13,1683531771.46875
-41.98,1683531771.484375
-48.98,1683531771.5
-54.63,1683531771.515625
-57.26,1683531771.53125
-55.54,1683531771.546875
-48.88,1683531771.5625
-37.77,1683531771.578125
-23.58,1683531771.59375
-8.24,1683531771.609375
6.40,1683531771.625
18.94,1683531771.640625
28.71,1683531771.65625
35.61,1683531771.671875
39.84,1683531771.6875
41.65,1683531771.703125
41.22,1683531771.71875
38.75,1683531771.734375
34.63,1683531771.75
29.51,1683531771.765625
24.22,1683531771.78125
19.53,1683531771.796875
15.93,1683531771.8125
13.51,1683531771.828125
12.04,1683531771.84375
11.11,1683531771.859375
10.43,1683531771.875
9.86,1683531771.890625
9.42,1683531771.90625
9.18,1683531771.921875
9.08,1683531771.9375
8.91,1683531771.953125
8.35,1683531771.96875
7.05,1683531771.984375
4.81,1683531772.0
1.58,1683531772.015625
-2.43,1683531772.03125
-6.92,1683531772.046875
-11.57,1683531772.0625
-16.17,1683531772.078125
-20.66,1683531772.09375
-25.22,1683531772.109375
-30.17,1683531772.125
-35.88,1683531772.140625
-42.57,1683531772.15625
-50.10,1683531772.171875
-57.80,1683531772.1875
-64.44,1683531772.203125
-68.44,1683531772.21875
-68.36,1683531772.234375
-63.29,1683531772.25
-53.33,1683531772.265625
-39.49,1683531772.28125
-23.51,1683531772.296875
-7.31,1683531772.3125
7.45,1683531772.328125
19.71,1683531772.34375
29.02,1683531772.359375
35.42,1683531772.375
39.20,1683531772.390625
40.65,1683531772.40625
40.01,1683531772.421875
37.55,1683531772.4375
33.61,1683531772.453125
28.73,1683531772.46875
23.58,1683531772.484375
18.85,1683531772.5
15.00,1683531772.515625
12.24,1683531772.53125
10.45,1683531772.546875
9.38,1683531772.5625
8.75,1683531772.578125
8.44,1683531772.59375
8.40,1683531772.609375
8.60,1683531772.625
8.86,1683531772.640625
8.79,1683531772.65625
7.94,1683531772.671875
5.90,1683531772.6875
2.52,1683531772.703125
-2.02,1683531772.71875
-7.31,1683531772.734375
-12.80,1683531772.75
-17.96,1683531772.765625
-22.46,1683531772.78125
-26.18,1683531772.796875
-29.25,1683531772.8125
-31.98,1683531772.828125
-34.80,1683531772.84375
-38.22,1683531772.859375
-42.59,1683531772.875
-47.92,1683531772.890625
-53.68,1683531772.90625
-58.77,1683531772.921875
-61.69,1683531772.9375
-60.94,1683531772.953125
-55.49,1683531772.96875
-45.11,1683531772.984375
-30.52,1683531773.0
-13.16,1683531773.015625
5.07,1683531773.03125
22.29,1683531773.046875
36.95,1683531773.0625
48.02,1683531773.078125
55.06,1683531773.09375
