1683790448.00,timestamp
-0.00,1683790448.0
-0.00,1683790448.015625
-0.00,1683790448.03125
-0.00,1683790448.046875
-0.00,1683790448.0625
-0.00,1683790448.078125
-0.00,1683790448.09375
-0.00,1683790448.109375
-0.00,1683790448.125
-0.00,1683790448.140625
0.00,1683790448.15625
0.01,1683790448.171875
0.01,1683790448.1875
-0.00,1683790448.203125
-0.03,1683790448.21875
-0.05,1683790448.234375
-0.05,1683790448.25
0.00,1683790448.265625
0.13,1683790448.28125
0.36,1683790448.296875
0.66,1683790448.3125
1.01,1683790448.328125
1.37,1683790448.34375
1.72,1683790448.359375
2.06,1683790448.375
2.40,1683790448.390625
2.79,1683790448.40625
3.24,1683790448.421875
3.80,1683790448.4375
4.42,1683790448.453125
5.06,1683790448.46875
5.66,1683790448.484375
6.20,1683790448.5
6.68,1683790448.515625
7.15,1683790448.53125
7.68,1683790448.546875
8.31,1683790448.5625
9.14,1683790448.578125
10.09,1683790448.59375
11.04,1683790448.609375
11.88,1683790448.625
12.56,1683790448.640625
13.14,1683790448.65625
13.76,1683790448.671875
14.65,1683790448.6875
15.96,1683790448.703125
17.91,1683790448.71875
20.32,1683790448.734375
22.90,1683790448.75
25.38,1683790448.765625
27.58,1683790448.78125
29.57,1683790448.796875
31.68,1683790448.8125
34.32,1683790448.828125
37.81,1683790448.84375
42.54,1683790448.859375
48.15,1683790448.875
54.10,1683790448.890625
59.83,1683790448.90625
64.97,1683790448.921875
69.58,1683790448.9375
74.14,1683790448.953125
79.34,1683790448.96875
85.71,1683790448.984375
93.76,1683790449.0
103.00,1683790449.015625
112.62,1683790449.03125
121.73,1683790449.046875
129.77,1683790449.0625
136.75,1683790449.078125
143.30,1683790449.09375
150.75,1683790449.109375
157.77,1683790449.125
166.64,1683790449.140625
177.95,1683790449.15625
191.79,1683790449.171875
206.97,1683790449.1875
220.57,1683790449.203125
228.25,1683790449.21875
225.36,1683790449.234375
208.53,1683790449.25
176.87,1683790449.265625
132.76,1683790449.28125
80.05,1683790449.296875
23.07,1683790449.3125
-34.94,1683790449.328125
-92.44,1683790449.34375
-149.16,1683790449.359375
-205.23,1683790449.375
-260.37,1683790449.390625
-313.74,1683790449.40625
-363.87,1683790449.421875
-409.83,1683790449.4375
-450.91,1683790449.453125
-486.50,1683790449.46875
-515.74,1683790449.484375
-537.23,1683790449.5
-549.22,1683790449.515625
-549.96,1683790449.53125
-538.37,1683790449.546875
-514.21,1683790449.5625
-478.67,1683790449.578125
-433.88,1683790449.59375
-382.45,1683790449.609375
-327.02,1683790449.625
-269.84,1683790449.640625
-212.63,1683790449.65625
-156.66,1683790449.671875
-102.95,1683790449.6875
-52.37,1683790449.703125
-5.90,1683790449.71875
35.58,1683790449.734375
71.43,1683790449.75
101.35,1683790449.765625
125.50,1683790449.78125
144.38,1683790449.796875
158.69,1683790449.8125
169.15,1683790449.828125
176.37,1683790449.84375
180.75,1683790449.859375
182.57,1683790449.875
182.07,1683790449.890625
179.51,1683790449.90625
175.23,1683790449.921875
169.65,1683790449.9375
163.18,1683790449.953125
156.15,1683790449.96875
148.81,1683790449.984375
141.30,1683790450.0
133.69,1683790450.015625
126.02,1683790450.03125
118.33,1683790450.046875
110.69,1683790450.0625
103.16,1683790450.078125
95.80,1683790450.09375
88.68,1683790450.109375
81.83,1683790450.125
75.25,1683790450.140625
68.95,1683790450.15625
62.95,1683790450.171875
57.25,1683790450.1875
51.86,1683790450.203125
46.78,1683790450.21875
42.03,1683790450.234375
37.59,1683790450.25
33.45,1683790450.265625
29.61,1683790450.28125
26.07,1683790450.296875
22.81,1683790450.3125
19.83,1683790450.328125
17.11,1683790450.34375
14.67,1683790450.359375
12.48,1683790450.375
10.54,1683790450.390625
8.83,1683790450.40625
7.35,1683790450.421875
6.07,1683790450.4375
4.97,1683790450.453125
4.05,1683790450.46875
3.27,1683790450.484375
2.62,1683790450.5
2.09,1683790450.515625
1.65,1683790450.53125
1.30,1683790450.546875
1.01,1683790450.5625
0.79,1683790450.578125
0.61,1683790450.59375
0.47,1683790450.609375
0.37,1683790450.625
0.29,1683790450.640625
0.23,1683790450.65625
0.18,1683790450.671875
0.15,1683790450.6875
0.13,1683790450.703125
0.12,1683790450.71875
0.13,1683790450.734375
0.15,1683790450.75
0.18,1683790450.765625
0.22,1683790450.78125
0.24,1683790450.796875
0.23,1683790450.8125
0.19,1683790450.828125
0.13,1683790450.84375
0.07,1683790450.859375
0.03,1683790450.875
0.03,1683790450.890625
0.07,1683790450.90625
0.14,1683790450.921875
0.20,1683790450.9375
0.23,1683790450.953125
0.22,1683790450.96875
0.19,1683790450.984375
0.15,1683790451.0
0.15,1683790451.015625
0.21,1683790451.03125
0.32,1683790451.046875
0.45,1683790451.0625
0.56,1683790451.078125
0.59,1683790451.09375
0.55,1683790451.109375
0.45,1683790451.125
0.37,1683790451.140625
0.39,1683790451.15625
0.53,1683790451.171875
0.80,1683790451.1875
1.09,1683790451.203125
1.30,1683790451.21875
1.30,1683790451.234375
1.09,1683790451.25
0.75,1683790451.265625
0.46,1683790451.28125
0.41,1683790451.296875
0.72,1683790451.3125
1.35,1683790451.328125
2.10,1683790451.34375
2.67,1683790451.359375
2.83,1683790451.375
2.50,1683790451.390625
1.86,1683790451.40625
1.24,1683790451.421875
1.02,1683790451.4375
1.41,1683790451.453125
2.36,1683790451.46875
3.53,1683790451.484375
4.45,1683790451.5
4.71,1683790451.515625
4.23,1683790451.53125
3.24,1683790451.546875
2.30,1683790451.5625
1.86,1683790451.578125
2.18,1683790451.59375
3.12,1683790451.609375
4.20,1683790451.625
4.80,1683790451.640625
4.41,1683790451.65625
2.63,1683790451.671875
-0.81,1683790451.6875
-5.98,1683790451.703125
-12.59,1683790451.71875
-19.60,1683790451.734375
-25.33,1683790451.75
-27.76,1683790451.765625
-25.42,1683790451.78125
-18.21,1683790451.796875
-7.69,1683790451.8125
3.39,1683790451.828125
12.21,1683790451.84375
16.96,1683790451.859375
17.40,1683790451.875
14.57,1683790451.890625
10.03,1683790451.90625
5.10,1683790451.921875
0.44,1683790451.9375
-3.70,1683790451.953125
-7.17,1683790451.96875
-9.72,1683790451.984375
-10.98,1683790452.0
-10.89,1683790452.015625
-9.83,1683790452.03125
-8.74,1683790452.046875
-8.56,1683790452.0625
-9.91,1683790452.078125
-12.59,1683790452.09375
-15.44,1683790452.109375
-16.70,1683790452.125
-14.63,1683790452.140625
-8.26,1683790452.15625
2.11,1683790452.171875
14.85,1683790452.1875
27.47,1683790452.203125
37.44,1683790452.21875
42.94,1683790452.234375
43.40,1683790452.25
39.38,1683790452.265625
32.25,1683790452.28125
23.59,1683790452.296875
14.79,1683790452.3125
6.72,1683790452.328125
-0.20,1683790452.34375
-5.90,1683790452.359375
-10.36,1683790452.375
-13.54,1683790452.390625
-15.30,1683790452.40625
-15.51,1683790452.421875
-14.21,1683790452.4375
-11.65,1683790452.453125
-8.30,1683790452.46875
-4.78,1683790452.484375
-1.59,1683790452.5
0.95,1683790452.515625
2.69,1683790452.53125
3.45,1683790452.546875
2.97,1683790452.5625
1.05,1683790452.578125
-2.33,1683790452.59375
-6.78,1683790452.609375
-11.62,1683790452.625
-15.95,1683790452.640625
-19.13,1683790452.65625
-21.02,1683790452.671875
-22.19,1683790452.6875
-23.79,1683790452.703125
-27.12,1683790452.71875
-33.35,1683790452.734375
-42.15,1683790452.75
-52.46,1683790452.765625
-62.19,1683790452.78125
-68.54,1683790452.796875
-68.69,1683790452.8125
-60.62,1683790452.828125
-43.87,1683790452.84375
-19.83,1683790452.859375
8.54,1683790452.875
37.52,1683790452.890625
63.48,1683790452.90625
83.77,1683790452.921875
97.09,1683790452.9375
103.42,1683790452.953125
103.60,1683790452.96875
98.89,1683790452.984375
90.67,1683790453.0
80.24,1683790453.015625
68.76,1683790453.03125
57.14,1683790453.046875
46.06,1683790453.0625
36.01,1683790453.078125
27.26,1683790453.09375
19.88,1683790453.109375
13.91,1683790453.125
9.41,1683790453.140625
6.41,1683790453.15625
4.91,1683790453.171875
4.63,1683790453.1875
5.02,1683790453.203125
5.34,1683790453.21875
4.82,1683790453.234375
2.90,1683790453.25
-0.60,1683790453.265625
-5.49,1683790453.28125
-11.36,1683790453.296875
-17.76,1683790453.3125
-24.43,1683790453.328125
-31.34,1683790453.34375
-38.73,1683790453.359375
-47.04,1683790453.375
-56.73,1683790453.390625
-68.03,1683790453.40625
-80.50,1683790453.421875
-92.77,1683790453.4375
-102.48,1683790453.453125
-106.78,1683790453.46875
-103.17,1683790453.484375
-90.42,1683790453.5
-69.13,1683790453.515625
-41.70,1683790453.53125
-11.62,1683790453.546875
17.44,1683790453.5625
42.53,1683790453.578125
61.84,1683790453.59375
74.73,1683790453.609375
81.45,1683790453.625
82.81,1683790453.640625
79.88,1683790453.65625
73.82,1683790453.671875
65.76,1683790453.6875
56.73,1683790453.703125
47.54,1683790453.71875
38.79,1683790453.734375
30.91,1683790453.75
24.17,1683790453.765625
18.77,1683790453.78125
14.80,1683790453.796875
12.27,1683790453.8125
11.02,1683790453.828125
10.71,1683790453.84375
10.79,1683790453.859375
10.62,1683790453.875
9.57,1683790453.890625
7.14,1683790453.90625
3.16,1683790453.921875
-2.21,1683790453.9375
-8.55,1683790453.953125
-15.27,1683790453.96875
-21.92,1683790453.984375
-28.35,1683790454.0
-34.86,1683790454.015625
-42.15,1683790454.03125
-51.10,1683790454.046875
-62.30,1683790454.0625
-75.51,1683790454.078125
-89.36,1683790454.09375
-101.34,1683790454.109375
-108.33,1683790454.125
-107.50,1683790454.140625
-97.22,1683790454.15625
-77.71,1683790454.171875
-51.09,1683790454.1875
-20.81,1683790454.203125
9.25,1683790454.21875
35.74,1683790454.234375
56.38,1683790454.25
70.29,1683790454.265625
77.67,1683790454.28125
79.44,1683790454.296875
76.76,1683790454.3125
70.76,1683790454.328125
62.44,1683790454.34375
52.69,1683790454.359375
42.42,1683790454.375
32.56,1683790454.390625
24.05,1683790454.40625
17.54,1683790454.421875
13.33,1683790454.4375
11.25,1683790454.453125
10.75,1683790454.46875
11.12,1683790454.484375
11.75,1683790454.5
12.15,1683790454.515625
12.02,1683790454.53125
11.10,1683790454.546875
9.14,1683790454.5625
5.92,1683790454.578125
1.33,1683790454.59375
-4.54,1683790454.609375
-11.47,1683790454.625
-19.16,1683790454.640625
-27.59,1683790454.65625
-37.00,1683790454.671875
-47.80,1683790454.6875
-60.18,1683790454.703125
-73.62,1683790454.71875
-86.58,1683790454.734375
-96.60,1683790454.75
-100.85,1683790454.765625
-97.02,1683790454.78125
-84.12,1683790454.796875
-62.92,1683790454.8125
-35.81,1683790454.828125
-6.24,1683790454.84375
22.19,1683790454.859375
46.49,1683790454.875
64.77,1683790454.890625
76.30,1683790454.90625
81.38,1683790454.921875
80.93,1683790454.9375
76.23,1683790454.953125
68.61,1683790454.96875
59.34,1683790454.984375
49.51,1683790455.0
40.05,1683790455.015625
31.66,1683790455.03125
24.78,1683790455.046875
19.58,1683790455.0625
15.96,1683790455.078125
13.74,1683790455.09375
12.66,1683790455.109375
12.46,1683790455.125
12.79,1683790455.140625
13.11,1683790455.15625
12.73,1683790455.171875
10.92,1683790455.1875
7.19,1683790455.203125
1.50,1683790455.21875
-5.69,1683790455.234375
-13.63,1683790455.25
-21.63,1683790455.265625
-29.37,1683790455.28125
-37.00,1683790455.296875
-45.18,1683790455.3125
-54.71,1683790455.328125
-66.27,1683790455.34375
-79.97,1683790455.359375
-95.01,1683790455.375
-109.47,1683790455.390625
-120.48,1683790455.40625
-124.86,1683790455.421875
-120.02,1683790455.4375
-104.89,1683790455.453125
-80.45,1683790455.46875
-49.52,1683790455.484375
-16.03,1683790455.5
16.07,1683790455.515625
43.71,1683790455.53125
65.10,1683790455.546875
79.67,1683790455.5625
87.73,1683790455.578125
90.06,1683790455.59375
87.72,1683790455.609375
81.91,1683790455.625
73.94,1683790455.640625
65.10,1683790455.65625
56.45,1683790455.671875
48.73,1683790455.6875
42.26,1683790455.703125
37.12,1683790455.71875
33.24,1683790455.734375
30.59,1683790455.75
29.15,1683790455.765625
28.79,1683790455.78125
29.18,1683790455.796875
29.66,1683790455.8125
29.40,1683790455.828125
27.65,1683790455.84375
23.91,1683790455.859375
18.09,1683790455.875
10.58,1683790455.890625
2.01,1683790455.90625
-6.95,1683790455.921875
-15.74,1683790455.9375
-24.14,1683790455.953125
-32.30,1683790455.96875
-40.79,1683790455.984375
-50.41,1683790456.0
-61.94,1683790456.015625
-75.58,1683790456.03125
-90.47,1683790456.046875
-104.53,1683790456.0625
-114.68,1683790456.078125
-117.63,1683790456.09375
-110.90,1683790456.109375
-93.80,1683790456.125
-67.71,1683790456.140625
-35.83,1683790456.15625
-2.25,1683790456.171875
29.08,1683790456.1875
55.21,1683790456.203125
74.59,1683790456.21875
86.92,1683790456.234375
92.80,1683790456.25
93.26,1683790456.265625
89.53,1683790456.28125
82.83,1683790456.296875
74.36,1683790456.3125
65.24,1683790456.328125
56.43,1683790456.34375
48.64,1683790456.359375
42.26,1683790456.375
37.30,1683790456.390625
33.61,1683790456.40625
30.92,1683790456.421875
29.07,1683790456.4375
27.97,1683790456.453125
27.59,1683790456.46875
27.71,1683790456.484375
27.84,1683790456.5
27.21,1683790456.515625
24.98,1683790456.53125
20.58,1683790456.546875
13.97,1683790456.5625
5.74,1683790456.578125
-3.20,1683790456.59375
-11.89,1683790456.609375
-19.75,1683790456.625
-26.84,1683790456.640625
-33.79,1683790456.65625
-41.61,1683790456.671875
-51.29,1683790456.6875
-63.29,1683790456.703125
-77.14,1683790456.71875
-91.20,1683790456.734375
-102.80,1683790456.75
-108.81,1683790456.765625
-106.49,1683790456.78125
-94.45,1683790456.796875
-73.16,1683790456.8125
-44.97,1683790456.828125
-13.43,1683790456.84375
17.63,1683790456.859375
44.97,1683790456.875
66.46,1683790456.890625
81.19,1683790456.90625
89.20,1683790456.921875
91.18,1683790456.9375
88.22,1683790456.953125
81.61,1683790456.96875
72.70,1683790456.984375
62.80,1683790457.0
52.98,1683790457.015625
44.05,1683790457.03125
36.53,1683790457.046875
30.67,1683790457.0625
26.57,1683790457.078125
24.14,1683790457.09375
23.15,1683790457.109375
23.28,1683790457.125
24.03,1683790457.140625
24.85,1683790457.15625
25.08,1683790457.171875
24.11,1683790457.1875
21.43,1683790457.203125
16.82,1683790457.21875
10.41,1683790457.234375
2.68,1683790457.25
-5.64,1683790457.265625
-13.86,1683790457.28125
-21.61,1683790457.296875
-29.04,1683790457.3125
-36.75,1683790457.328125
-45.67,1683790457.34375
-56.43,1683790457.359375
-68.98,1683790457.375
-82.14,1683790457.390625
-93.66,1683790457.40625
-100.66,1683790457.421875
-100.43,1683790457.4375
-91.31,1683790457.453125
-73.27,1683790457.46875
-48.08,1683790457.484375
-18.84,1683790457.5
10.78,1683790457.515625
37.41,1683790457.53125
58.66,1683790457.546875
73.32,1683790457.5625
81.35,1683790457.578125
83.48,1683790457.59375
80.84,1683790457.609375
74.70,1683790457.625
66.29,1683790457.640625
56.77,1683790457.65625
47.23,1683790457.671875
38.55,1683790457.6875
31.37,1683790457.703125
25.98,1683790457.71875
22.31,1683790457.734375
20.06,1683790457.75
18.87,1683790457.765625
18.46,1683790457.78125
18.61,1683790457.796875
19.09,1683790457.8125
19.51,1683790457.828125
19.26,1683790457.84375
17.62,1683790457.859375
14.00,1683790457.875
8.15,1683790457.890625
0.32,1683790457.90625
-8.81,1683790457.921875
-18.35,1683790457.9375
-27.52,1683790457.953125
-35.94,1683790457.96875
-43.79,1683790457.984375
-51.81,1683790458.0
-60.96,1683790458.015625
-72.02,1683790458.03125
-85.04,1683790458.046875
-98.93,1683790458.0625
-111.45,1683790458.078125
-119.62,1683790458.09375
-120.51,1683790458.109375
-112.19,1683790458.125
-94.44,1683790458.140625
-68.85,1683790458.15625
-38.52,1683790458.171875
-7.14,1683790458.1875
21.90,1683790458.203125
46.11,1683790458.21875
64.15,1683790458.234375
75.76,1683790458.25
81.38,1683790458.265625
81.92,1683790458.28125
78.54,1683790458.296875
72.48,1683790458.3125
65.00,1683790458.328125
57.18,1683790458.34375
49.76,1683790458.359375
43.14,1683790458.375
37.44,1683790458.390625
32.65,1683790458.40625
28.76,1683790458.421875
25.88,1683790458.4375
24.15,1683790458.453125
23.58,1683790458.46875
23.93,1683790458.484375
24.62,1683790458.5
24.85,1683790458.515625
23.77,1683790458.53125
20.75,1683790458.546875
15.56,1683790458.5625
8.45,1683790458.578125
0.08,1683790458.59375
-8.74,1683790458.609375
-17.26,1683790458.625
-25.07,1683790458.640625
-32.29,1683790458.65625
-39.50,1683790458.671875
-47.63,1683790458.6875
-57.50,1683790458.703125
-69.37,1683790458.71875
-82.48,1683790458.734375
-94.93,1683790458.75
-103.94,1683790458.765625
-106.58,1683790458.78125
-100.64,1683790458.796875
-85.50,1683790458.8125
-62.36,1683790458.828125
-34.01,1683790458.84375
-4.11,1683790458.859375
23.85,1683790458.875
47.23,1683790458.890625
64.63,1683790458.90625
75.78,1683790458.921875
81.17,1683790458.9375
81.68,1683790458.953125
78.32,1683790458.96875
72.17,1683790458.984375
64.34,1683790459.0
55.99,1683790459.015625
48.13,1683790459.03125
41.44,1683790459.046875
36.11,1683790459.0625
31.91,1683790459.078125
28.43,1683790459.09375
25.36,1683790459.109375
22.73,1683790459.125
20.82,1683790459.140625
19.93,1683790459.15625
20.05,1683790459.171875
20.72,1683790459.1875
21.09,1683790459.203125
20.24,1683790459.21875
17.50,1683790459.234375
12.62,1683790459.25
5.90,1683790459.265625
-2.08,1683790459.28125
-10.57,1683790459.296875
-18.98,1683790459.3125
-27.00,1683790459.328125
-34.71,1683790459.34375
-42.56,1683790459.359375
-51.29,1683790459.375
-61.51,1683790459.390625
-73.28,1683790459.40625
-85.70,1683790459.421875
-96.72,1683790459.4375
-103.55,1683790459.453125
-103.40,1683790459.46875
-94.47,1683790459.484375
-76.69,1683790459.5
-51.88,1683790459.515625
-23.29,1683790459.53125
5.38,1683790459.546875
30.88,1683790459.5625
51.13,1683790459.578125
65.24,1683790459.59375
73.31,1683790459.609375
75.98,1683790459.625
74.07,1683790459.640625
68.51,1683790459.65625
60.26,1683790459.671875
50.43,1683790459.6875
40.10,1683790459.703125
30.32,1683790459.71875
21.87,1683790459.734375
15.25,1683790459.75
10.68,1683790459.765625
8.10,1683790459.78125
7.32,1683790459.796875
8.01,1683790459.8125
9.71,1683790459.828125
11.77,1683790459.84375
13.44,1683790459.859375
13.93,1683790459.875
12.62,1683790459.890625
9.26,1683790459.90625
4.00,1683790459.921875
-2.54,1683790459.9375
-9.65,1683790459.953125
-16.66,1683790459.96875
-23.28,1683790459.984375
-29.65,1683790460.0
-36.36,1683790460.015625
-44.18,1683790460.03125
-53.75,1683790460.046875
-65.14,1683790460.0625
-77.51,1683790460.078125
-88.99,1683790460.09375
-96.97,1683790460.109375
-98.67,1683790460.125
-92.11,1683790460.140625
-76.77,1683790460.15625
-53.98,1683790460.171875
-26.60,1683790460.1875
1.76,1683790460.203125
27.75,1683790460.21875
48.96,1683790460.234375
64.21,1683790460.25
73.40,1683790460.265625
77.08,1683790460.28125
76.08,1683790460.296875
71.38,1683790460.3125
64.03,1683790460.328125
55.14,1683790460.34375
45.77,1683790460.359375
36.87,1683790460.375
29.04,1683790460.390625
22.57,1683790460.40625
17.52,1683790460.421875
13.83,1683790460.4375
11.47,1683790460.453125
10.42,1683790460.46875
10.50,1683790460.484375
11.32,1683790460.5
12.21,1683790460.515625
12.36,1683790460.53125
11.04,1683790460.546875
7.84,1683790460.5625
2.78,1683790460.578125
-3.69,1683790460.59375
-10.90,1683790460.609375
-18.25,1683790460.625
-25.39,1683790460.640625
-32.36,1683790460.65625
-39.67,1683790460.671875
-48.02,1683790460.6875
-58.08,1683790460.703125
-70.09,1683790460.71875
-83.45,1683790460.734375
-96.54,1683790460.75
-106.87,1683790460.765625
-111.58,1683790460.78125
-108.26,1683790460.796875
-95.79,1683790460.8125
-74.76,1683790460.828125
-47.48,1683790460.84375
-17.36,1683790460.859375
11.99,1683790460.875
37.60,1683790460.890625
57.60,1683790460.90625
71.26,1683790460.921875
78.75,1683790460.9375
80.77,1683790460.953125
78.34,1683790460.96875
72.63,1683790460.984375
64.88,1683790461.0
56.27,1683790461.015625
47.79,1683790461.03125
40.11,1683790461.046875
33.61,1683790461.0625
28.44,1683790461.078125
24.58,1683790461.09375
21.93,1683790461.109375
20.32,1683790461.125
19.52,1683790461.140625
19.15,1683790461.15625
18.76,1683790461.171875
17.85,1683790461.1875
15.92,1683790461.203125
12.59,1683790461.21875
7.67,1683790461.234375
1.29,1683790461.25
-6.09,1683790461.265625
-13.82,1683790461.28125
-21.27,1683790461.296875
-28.14,1683790461.3125
-34.71,1683790461.328125
-41.75,1683790461.34375
-50.27,1683790461.359375
-61.04,1683790461.375
-73.98,1683790461.390625
-87.90,1683790461.40625
-100.48,1683790461.421875
-108.77,1683790461.4375
-109.96,1683790461.453125
-102.25,1683790461.46875
-85.50,1683790461.484375
-61.45,1683790461.5
-33.24,1683790461.515625
-4.62,1683790461.53125
20.99,1683790461.546875
41.22,1683790461.5625
55.03,1683790461.578125
62.52,1683790461.59375
64.50,1683790461.609375
62.07,1683790461.625
56.29,1683790461.640625
48.05,1683790461.65625
38.17,1683790461.671875
27.39,1683790461.6875
16.38,1683790461.703125
5.66,1683790461.71875
-4.42,1683790461.734375
-13.67,1683790461.75
-21.94,1683790461.765625
-29.15,1683790461.78125
-35.22,1683790461.796875
-40.17,1683790461.8125
-44.19,1683790461.828125
-47.73,1683790461.84375
-51.34,1683790461.859375
-55.53,1683790461.875
-60.59,1683790461.890625
-66.38,1683790461.90625
-72.32,1683790461.921875
-77.56,1683790461.9375
-81.25,1683790461.953125
-82.80,1683790461.96875
-82.18,1683790461.984375
-79.96,1683790462.0
-77.14,1683790462.015625
-74.78,1683790462.03125
-73.45,1683790462.046875
-72.78,1683790462.0625
-71.35,1683790462.078125
-66.91,1683790462.09375
-57.13,1683790462.109375
-40.44,1683790462.125
-16.70,1683790462.140625
12.56,1683790462.15625
44.51,1683790462.171875
75.78,1683790462.1875
103.31,1683790462.203125
124.98,1683790462.21875
139.86,1683790462.234375
148.01,1683790462.25
150.15,1683790462.265625
147.25,1683790462.28125
140.44,1683790462.296875
130.85,1683790462.3125
119.61,1683790462.328125
107.78,1683790462.34375
96.28,1683790462.359375
85.80,1683790462.375
76.81,1683790462.390625
69.54,1683790462.40625
64.05,1683790462.421875
60.19,1683790462.4375
57.61,1683790462.453125
55.75,1683790462.46875
53.94,1683790462.484375
51.52,1683790462.5
48.00,1683790462.515625
43.18,1683790462.53125
37.11,1683790462.546875
30.02,1683790462.5625
22.19,1683790462.578125
13.84,1683790462.59375
5.10,1683790462.609375
-4.07,1683790462.625
-13.83,1683790462.640625
-24.51,1683790462.65625
-36.45,1683790462.671875
-49.66,1683790462.6875
-63.46,1683790462.703125
-76.23,1683790462.71875
-85.51,1683790462.734375
-88.59,1683790462.75
-83.41,1683790462.765625
-69.35,1683790462.78125
-47.68,1683790462.796875
-21.29,1683790462.8125
6.11,1683790462.828125
30.98,1683790462.84375
50.76,1683790462.859375
64.18,1683790462.875
71.20,1683790462.890625
72.55,1683790462.90625
69.34,1683790462.921875
62.75,1683790462.9375
53.91,1683790462.953125
43.85,1683790462.96875
33.50,1683790462.984375
23.66,1683790463.0
15.01,1683790463.015625
8.05,1683790463.03125
3.08,1683790463.046875
0.12,1683790463.0625
-1.06,1683790463.078125
-0.93,1683790463.09375
-0.16,1683790463.109375
0.57,1683790463.125
0.65,1683790463.140625
-0.38,1683790463.15625
-2.76,1683790463.171875
-6.53,1683790463.1875
-11.59,1683790463.203125
-17.65,1683790463.21875
-24.37,1683790463.234375
-31.44,1683790463.25
-38.77,1683790463.265625
-46.58,1683790463.28125
-55.42,1683790463.296875
-65.85,1683790463.3125
-77.97,1683790463.328125
-90.97,1683790463.34375
-102.93,1683790463.359375
-111.14,1683790463.375
-112.74,1683790463.390625
-105.71,1683790463.40625
-89.57,1683790463.421875
-65.69,1683790463.4375
-36.92,1683790463.453125
-6.90,1683790463.46875
20.94,1683790463.484375
44.02,1683790463.5
61.00,1683790463.515625
71.64,1683790463.53125
76.56,1683790463.546875
76.74,1683790463.5625
73.33,1683790463.578125
67.44,1683790463.59375
60.09,1683790463.609375
52.15,1683790463.625
44.37,1683790463.640625
37.29,1683790463.65625
31.20,1683790463.671875
26.27,1683790463.6875
22.55,1683790463.703125
19.97,1683790463.71875
18.38,1683790463.734375
17.47,1683790463.75
16.78,1683790463.765625
15.78,1683790463.78125
14.01,1683790463.796875
11.16,1683790463.8125
7.19,1683790463.828125
2.26,1683790463.84375
-3.41,1683790463.859375
-9.62,1683790463.875
-16.28,1683790463.890625
-23.47,1683790463.90625
-31.47,1683790463.921875
-40.66,1683790463.9375
-51.41,1683790463.953125
-63.75,1683790463.96875
-77.00,1683790463.984375
-89.53,1683790464.0
-98.85,1683790464.015625
-102.19,1683790464.03125
-97.27,1683790464.046875
-83.23,1683790464.0625
-61.04,1683790464.078125
-33.37,1683790464.09375
-3.85,1683790464.109375
23.92,1683790464.125
47.16,1683790464.140625
64.43,1683790464.15625
75.47,1683790464.171875
80.91,1683790464.1875
81.76,1683790464.203125
79.14,1683790464.21875
74.09,1683790464.234375
67.58,1683790464.25
60.47,1683790464.265625
53.46,1683790464.28125
47.03,1683790464.296875
41.42,1683790464.3125
36.65,1683790464.328125
32.68,1683790464.34375
29.51,1683790464.359375
27.12,1683790464.375
25.47,1683790464.390625
24.38,1683790464.40625
23.44,1683790464.421875
22.09,1683790464.4375
19.74,1683790464.453125
15.94,1683790464.46875
10.57,1683790464.484375
3.83,1683790464.5
-3.74,1683790464.515625
-11.51,1683790464.53125
-18.97,1683790464.546875
-25.94,1683790464.5625
-32.76,1683790464.578125
-40.19,1683790464.59375
-49.09,1683790464.609375
-59.96,1683790464.625
-72.40,1683790464.640625
-84.92,1683790464.65625
-95.04,1683790464.671875
-99.88,1683790464.6875
-97.00,1683790464.703125
-85.28,1683790464.71875
-65.28,1683790464.734375
-39.24,1683790464.75
-10.48,1683790464.765625
17.41,1683790464.78125
41.42,1683790464.796875
59.65,1683790464.8125
71.46,1683790464.828125
77.21,1683790464.84375
77.88,1683790464.859375
74.69,1683790464.875
68.79,1683790464.890625
61.21,1683790464.90625
52.86,1683790464.921875
44.52,1683790464.9375
36.87,1683790464.953125
30.42,1683790464.96875
25.46,1683790464.984375
22.05,1683790465.0
20.06,1683790465.015625
19.23,1683790465.03125
19.21,1683790465.046875
19.59,1683790465.0625
19.87,1683790465.078125
19.47,1683790465.09375
17.88,1683790465.109375
14.79,1683790465.125
10.21,1683790465.140625
4.51,1683790465.15625
-1.76,1683790465.171875
-8.09,1683790465.1875
-14.16,1683790465.203125
-20.07,1683790465.21875
-26.27,1683790465.234375
-33.43,1683790465.25
-42.16,1683790465.265625
-52.59,1683790465.28125
-64.02,1683790465.296875
-74.81,1683790465.3125
-82.49,1683790465.328125
-84.43,1683790465.34375
-78.61,1683790465.359375
-64.36,1683790465.375
-42.76,1683790465.390625
-16.42,1683790465.40625
11.17,1683790465.421875
36.60,1683790465.4375
57.22,1683790465.453125
71.58,1683790465.46875
79.38,1683790465.484375
81.10,1683790465.5
77.71,1683790465.515625
70.33,1683790465.53125
60.19,1683790465.546875
48.56,1683790465.5625
36.71,1683790465.578125
25.72,1683790465.59375
16.39,1683790465.609375
9.11,1683790465.625
3.90,1683790465.640625
0.56,1683790465.65625
-1.12,1683790465.671875
-1.37,1683790465.6875
-0.47,1683790465.703125
1.11,1683790465.71875
2.61,1683790465.734375
3.18,1683790465.75
2.08,1683790465.765625
-0.96,1683790465.78125
-5.69,1683790465.796875
-11.42,1683790465.8125
-17.36,1683790465.828125
-22.95,1683790465.84375
-28.12,1683790465.859375
-33.27,1683790465.875
-39.14,1683790465.890625
-46.56,1683790465.90625
-56.06,1683790465.921875
-67.52,1683790465.9375
-79.89,1683790465.953125
-91.17,1683790465.96875
-98.77,1683790465.984375
-100.05,1683790466.0
-93.22,1683790466.015625
-77.91,1683790466.03125
-55.43,1683790466.046875
-28.47,1683790466.0625
-0.45,1683790466.078125
25.41,1683790466.09375
46.68,1683790466.109375
62.11,1683790466.125
71.51,1683790466.140625
75.48,1683790466.15625
75.06,1683790466.171875
71.37,1683790466.1875
65.51,1683790466.203125
58.47,1683790466.21875
51.06,1683790466.234375
43.96,1683790466.25
37.60,1683790466.265625
32.18,1683790466.28125
27.78,1683790466.296875
24.37,1683790466.3125
21.96,1683790466.328125
20.58,1683790466.34375
20.16,1683790466.359375
20.47,1683790466.375
20.99,1683790466.390625
21.04,1683790466.40625
19.87,1683790466.421875
16.91,1683790466.4375
12.02,1683790466.453125
5.41,1683790466.46875
-2.29,1683790466.484375
-10.38,1683790466.5
-18.19,1683790466.515625
-25.43,1683790466.53125
-32.22,1683790466.546875
-39.13,1683790466.5625
-46.99,1683790466.578125
-56.47,1683790466.59375
-67.62,1683790466.609375
-79.52,1683790466.625
-90.19,1683790466.640625
-96.96,1683790466.65625
-97.25,1683790466.671875
-89.36,1683790466.6875
-73.12,1683790466.703125
-50.10,1683790466.71875
-23.18,1683790466.734375
4.17,1683790466.75
28.75,1683790466.765625
48.32,1683790466.78125
61.83,1683790466.796875
69.32,1683790466.8125
71.61,1683790466.828125
69.84,1683790466.84375
65.17,1683790466.859375
58.67,1683790466.875
51.23,1683790466.890625
43.53,1683790466.90625
36.15,1683790466.921875
29.52,1683790466.9375
23.94,1683790466.953125
19.60,1683790466.96875
16.58,1683790466.984375
14.85,1683790467.0
14.21,1683790467.015625
14.30,1683790467.03125
14.57,1683790467.046875
14.43,1683790467.0625
13.34,1683790467.078125
10.96,1683790467.09375
7.20,1683790467.109375
2.27,1683790467.125
-3.44,1683790467.140625
-9.52,1683790467.15625
-15.60,1683790467.171875
-21.50,1683790467.1875
-27.36,1683790467.203125
-33.64,1683790467.21875
-41.01,1683790467.234375
-50.02,1683790467.25
-60.63,1683790467.265625
-71.80,1683790467.28125
-81.42,1683790467.296875
-86.76,1683790467.3125
-85.27,1683790467.328125
-75.54,1683790467.34375
-57.89,1683790467.359375
-34.32,1683790467.375
-7.96,1683790467.390625
17.87,1683790467.40625
40.45,1683790467.421875
58.10,1683790467.4375
70.09,1683790467.453125
76.43,1683790467.46875
77.53,1683790467.484375
74.11,1683790467.5
67.18,1683790467.515625
58.02,1683790467.53125
48.08,1683790467.546875
38.65,1683790467.5625
30.62,1683790467.578125
24.33,1683790467.59375
19.68,1683790467.609375
16.31,1683790467.625
13.92,1683790467.640625
12.34,1683790467.65625
11.55,1683790467.671875
11.47,1683790467.6875
11.86,1683790467.703125
12.18,1683790467.71875
11.74,1683790467.734375
9.87,1683790467.75
6.15,1683790467.765625
0.62,1683790467.78125
-6.31,1683790467.796875
-13.88,1683790467.8125
-21.34,1683790467.828125
-28.19,1683790467.84375
-34.39,1683790467.859375
-40.42,1683790467.875
-47.13,1683790467.890625
-55.43,1683790467.90625
-65.77,1683790467.921875
-77.78,1683790467.9375
-89.98,1683790467.953125
-99.96,1683790467.96875
-104.89,1683790467.984375
-102.35,1683790468.0
-91.16,1683790468.015625
-71.79,1683790468.03125
-46.40,1683790468.046875
-18.22,1683790468.0625
9.32,1683790468.078125
33.38,1683790468.09375
52.20,1683790468.109375
65.12,1683790468.125
72.36,1683790468.140625
74.58,1683790468.15625
72.72,1683790468.171875
67.83,1683790468.1875
61.03,1683790468.203125
53.49,1683790468.21875
46.25,1683790468.234375
40.03,1683790468.25
35.09,1683790468.265625
31.25,1683790468.28125
28.11,1683790468.296875
25.32,1683790468.3125
22.79,1683790468.328125
20.75,1683790468.34375
19.48,1683790468.359375
19.09,1683790468.375
19.26,1683790468.390625
19.26,1683790468.40625
18.21,1683790468.421875
15.41,1683790468.4375
10.62,1683790468.453125
4.13,1683790468.46875
-3.36,1683790468.484375
-11.07,1683790468.5
-18.42,1683790468.515625
-25.17,1683790468.53125
-31.48,1683790468.546875
-37.84,1683790468.5625
-44.92,1683790468.578125
-53.37,1683790468.59375
-63.50,1683790468.609375
-74.92,1683790468.625
-86.27,1683790468.640625
-95.27,1683790468.65625
-99.20,1683790468.671875
-95.69,1683790468.6875
-83.60,1683790468.703125
-63.51,1683790468.71875
-37.72,1683790468.734375
-9.53,1683790468.75
17.58,1683790468.765625
40.85,1683790468.78125
58.61,1683790468.796875
70.36,1683790468.8125
76.40,1683790468.828125
77.54,1683790468.84375
74.70,1683790468.859375
68.94,1683790468.875
61.32,1683790468.890625
52.89,1683790468.90625
44.63,1683790468.921875
37.31,1683790468.9375
31.40,1683790468.953125
26.96,1683790468.96875
23.75,1683790468.984375
21.42,1683790469.0
19.70,1683790469.015625
18.56,1683790469.03125
18.11,1683790469.046875
18.43,1683790469.0625
19.35,1683790469.078125
20.28,1683790469.09375
20.42,1683790469.109375
18.97,1683790469.125
15.53,1683790469.140625
10.24,1683790469.15625
3.67,1683790469.171875
-3.39,1683790469.1875
-10.34,1683790469.203125
-16.90,1683790469.21875
-23.27,1683790469.234375
-29.97,1683790469.25
-37.71,1683790469.265625
-47.02,1683790469.28125
-57.95,1683790469.296875
-69.67,1683790469.3125
-80.45,1683790469.328125
-87.80,1683790469.34375
-89.17,1683790469.359375
-82.67,1683790469.375
-67.88,1683790469.390625
-46.05,1683790469.40625
-19.83,1683790469.421875
7.43,1683790469.4375
32.59,1683790469.453125
53.34,1683790469.46875
68.40,1683790469.484375
77.52,1683790469.5
81.03,1683790469.515625
79.70,1683790469.53125
74.49,1683790469.546875
66.54,1683790469.5625
57.06,1683790469.578125
47.29,1683790469.59375
38.24,1683790469.609375
30.63,1683790469.625
24.81,1683790469.640625
20.83,1683790469.65625
18.57,1683790469.671875
17.89,1683790469.6875
18.56,1683790469.703125
20.28,1683790469.71875
22.55,1683790469.734375
24.70,1683790469.75
26.04,1683790469.765625
26.01,1683790469.78125
24.37,1683790469.796875
21.22,1683790469.8125
16.86,1683790469.828125
11.61,1683790469.84375
5.67,1683790469.859375
-0.96,1683790469.875
-8.51,1683790469.890625
-17.43,1683790469.90625
-28.32,1683790469.921875
-41.80,1683790469.9375
-58.08,1683790469.953125
-76.59,1683790469.96875
-95.63,1683790469.984375
-112.57,1683790470.0
-124.38,1683790470.015625
-128.59,1683790470.03125
-124.08,1683790470.046875
-111.37,1683790470.0625
-92.38,1683790470.078125
-69.77,1683790470.09375
-46.15,1683790470.109375
-23.59,1683790470.125
-3.42,1683790470.140625
13.63,1683790470.15625
27.23,1683790470.171875
37.40,1683790470.1875
44.35,1683790470.203125
48.53,1683790470.21875
50.46,1683790470.234375
50.73,1683790470.25
49.85,1683790470.265625
48.21,1683790470.28125
46.16,1683790470.296875
44.03,1683790470.3125
42.14,1683790470.328125
40.86,1683790470.34375
40.43,1683790470.359375
40.91,1683790470.375
42.04,1683790470.390625
43.27,1683790470.40625
43.86,1683790470.421875
43.09,1683790470.4375
40.49,1683790470.453125
35.94,1683790470.46875
29.74,1683790470.484375
22.46,1683790470.5
14.80,1683790470.515625
7.38,1683790470.53125
0.47,1683790470.546875
-6.07,1683790470.5625
-12.82,1683790470.578125
-20.53,1683790470.59375
-29.81,1683790470.609375
-40.72,1683790470.625
-52.44,1683790470.640625
-63.29,1683790470.65625
-70.95,1683790470.671875
-73.12,1683790470.6875
-68.20,1683790470.703125
-55.78,1683790470.71875
-36.96,1683790470.734375
-14.03,1683790470.75
10.00,1683790470.765625
32.23,1683790470.78125
50.45,1683790470.796875
63.49,1683790470.8125
71.14,1683790470.828125
73.87,1683790470.84375
72.41,1683790470.859375
67.55,1683790470.875
60.06,1683790470.890625
50.75,1683790470.90625
40.52,1683790470.921875
30.31,1683790470.9375
20.92,1683790470.953125
12.86,1683790470.96875
6.30,1683790470.984375
1.16,1683790471.0
-2.71,1683790471.015625
-5.38,1683790471.03125
-6.85,1683790471.046875
-7.15,1683790471.0625
-6.48,1683790471.078125
-5.38,1683790471.09375
-4.58,1683790471.109375
-4.81,1683790471.125
-6.62,1683790471.140625
-10.11,1683790471.15625
-14.96,1683790471.171875
-20.55,1683790471.1875
-26.22,1683790471.203125
-31.49,1683790471.21875
-36.24,1683790471.234375
-40.72,1683790471.25
-45.59,1683790471.265625
-51.63,1683790471.28125
-59.43,1683790471.296875
-68.94,1683790471.3125
-79.14,1683790471.328125
-88.04,1683790471.34375
-93.05,1683790471.359375
-91.71,1683790471.375
-82.51,1683790471.390625
-65.60,1683790471.40625
-42.79,1683790471.421875
-17.11,1683790471.4375
8.09,1683790471.453125
30.02,1683790471.46875
46.99,1683790471.484375
58.43,1683790471.5
64.59,1683790471.515625
66.10,1683790471.53125
63.75,1683790471.546875
58.37,1683790471.5625
50.90,1683790471.578125
42.34,1683790471.59375
33.71,1683790471.609375
25.81,1683790471.625
19.09,1683790471.640625
13.66,1683790471.65625
9.43,1683790471.671875
6.31,1683790471.6875
4.31,1683790471.703125
3.45,1683790471.71875
3.61,1683790471.734375
4.42,1683790471.75
5.24,1683790471.765625
5.35,1683790471.78125
4.14,1683790471.796875
1.33,1683790471.8125
-2.92,1683790471.828125
-8.15,1683790471.84375
-13.80,1683790471.859375
-19.45,1683790471.875
-25.00,1683790471.890625
-30.78,1683790471.90625
-37.40,1683790471.921875
-45.55,1683790471.9375
-55.57,1683790471.953125
-67.15,1683790471.96875
-79.03,1683790471.984375
-89.12,1683790472.0
-94.88,1683790472.015625
-94.05,1683790472.03125
-85.33,1683790472.046875
-68.91,1683790472.0625
-46.56,1683790472.078125
-21.15,1683790472.09375
4.05,1683790472.109375
26.22,1683790472.125
43.49,1683790472.140625
55.13,1683790472.15625
61.37,1683790472.171875
63.02,1683790472.1875
61.08,1683790472.203125
56.52,1683790472.21875
50.15,1683790472.234375
42.70,1683790472.25
34.75,1683790472.265625
26.87,1683790472.28125
19.58,1683790472.296875
13.30,1683790472.3125
8.34,1683790472.328125
4.85,1683790472.34375
2.79,1683790472.359375
1.95,1683790472.375
1.99,1683790472.390625
2.41,1683790472.40625
2.71,1683790472.421875
2.38,1683790472.4375
1.05,1683790472.453125
-1.46,1683790472.46875
-5.10,1683790472.484375
-9.64,1683790472.5
-14.70,1683790472.515625
-19.98,1683790472.53125
-25.37,1683790472.546875
-31.02,1683790472.5625
-37.39,1683790472.578125
-45.03,1683790472.59375
-54.28,1683790472.609375
-64.89,1683790472.625
-75.77,1683790472.640625
-84.92,1683790472.65625
-89.82,1683790472.671875
-88.15,1683790472.6875
-78.53,1683790472.703125
-61.07,1683790472.71875
-37.42,1683790472.734375
-10.38,1683790472.75
16.87,1683790472.765625
41.44,1683790472.78125
61.29,1683790472.796875
75.35,1683790472.8125
83.46,1683790472.828125
86.11,1683790472.84375
84.24,1683790472.859375
79.05,1683790472.875
71.79,1683790472.890625
63.57,1683790472.90625
55.27,1683790472.921875
47.36,1683790472.9375
39.98,1683790472.953125
33.08,1683790472.96875
26.62,1683790472.984375
20.71,1683790473.0
15.71,1683790473.015625
12.05,1683790473.03125
10.07,1683790473.046875
9.70,1683790473.0625
10.33,1683790473.078125
11.00,1683790473.09375
10.59,1683790473.109375
8.21,1683790473.125
3.44,1683790473.140625
-3.59,1683790473.15625
-12.32,1683790473.171875
-21.88,1683790473.1875
-31.40,1683790473.203125
-40.23,1683790473.21875
-48.16,1683790473.234375
-55.54,1683790473.25
-63.00,1683790473.265625
-70.98,1683790473.28125
-79.09,1683790473.296875
-85.88,1683790473.3125
-88.95,1683790473.328125
-85.82,1683790473.34375
-75.01,1683790473.359375
-56.81,1683790473.375
-33.42,1683790473.390625
-8.25,1683790473.40625
15.13,1683790473.421875
34.09,1683790473.4375
47.41,1683790473.453125
55.21,1683790473.46875
58.42,1683790473.484375
58.17,1683790473.5
55.44,1683790473.515625
50.92,1683790473.53125
45.21,1683790473.546875
38.87,1683790473.5625
32.53,1683790473.578125
26.88,1683790473.59375
22.54,1683790473.609375
19.91,1683790473.625
19.10,1683790473.640625
19.82,1683790473.65625
21.44,1683790473.671875
23.04,1683790473.6875
23.59,1683790473.703125
22.27,1683790473.71875
18.67,1683790473.734375
12.92,1683790473.75
5.62,1683790473.765625
-2.44,1683790473.78125
-10.54,1683790473.796875
-18.30,1683790473.8125
-25.66,1683790473.828125
-32.78,1683790473.84375
-39.93,1683790473.859375
-47.42,1683790473.875
-55.52,1683790473.890625
-64.31,1683790473.90625
-73.39,1683790473.921875
-81.68,1683790473.9375
-87.36,1683790473.953125
-88.30,1683790473.96875
-82.67,1683790473.984375
-69.71,1683790474.0
-50.15,1683790474.015625
-26.15,1683790474.03125
-0.64,1683790474.046875
23.45,1683790474.0625
43.86,1683790474.078125
59.31,1683790474.09375
69.43,1683790474.109375
74.40,1683790474.125
74.73,1683790474.140625
71.07,1683790474.15625
64.23,1683790474.171875
55.23,1683790474.1875
45.26,1683790474.203125
35.50,1683790474.21875
26.97,1683790474.234375
20.31,1683790474.25
15.71,1683790474.265625
13.02,1683790474.28125
11.83,1683790474.296875
11.62,1683790474.3125
11.88,1683790474.328125
12.14,1683790474.34375
11.98,1683790474.359375
11.07,1683790474.375
9.18,1683790474.390625
6.22,1683790474.40625
2.25,1683790474.421875
-2.56,1683790474.4375
-8.02,1683790474.453125
-13.99,1683790474.46875
-20.54,1683790474.484375
-28.03,1683790474.5
-36.96,1683790474.515625
-47.67,1683790474.53125
-59.84,1683790474.546875
-72.15,1683790474.5625
-82.28,1683790474.578125
-87.43,1683790474.59375
-85.20,1683790474.609375
-74.46,1683790474.625
-55.82,1683790474.640625
-31.57,1683790474.65625
-4.95,1683790474.671875
20.74,1683790474.6875
42.90,1683790474.703125
59.99,1683790474.71875
71.51,1683790474.734375
77.69,1683790474.75
79.14,1683790474.765625
76.66,1683790474.78125
71.18,1683790474.796875
63.65,1683790474.8125
55.06,1683790474.828125
46.33,1683790474.84375
38.24,1683790474.859375
31.35,1683790474.875
25.97,1683790474.890625
22.13,1683790474.90625
19.67,1683790474.921875
18.20,1683790474.9375
17.29,1683790474.953125
16.48,1683790474.96875
15.45,1683790474.984375
13.93,1683790475.0
11.81,1683790475.015625
8.98,1683790475.03125
5.36,1683790475.046875
0.90,1683790475.0625
-4.39,1683790475.078125
-10.47,1683790475.09375
-17.44,1683790475.109375
-25.60,1683790475.125
-35.47,1683790475.140625
-47.37,1683790475.15625
-61.02,1683790475.171875
-75.09,1683790475.1875
-87.14,1683790475.203125
-94.22,1683790475.21875
-93.71,1683790475.234375
-84.29,1683790475.25
-66.40,1683790475.265625
-42.19,1683790475.28125
-14.84,1683790475.296875
12.25,1683790475.3125
36.25,1683790475.328125
55.33,1683790475.34375
68.70,1683790475.359375
76.45,1683790475.375
79.26,1683790475.390625
78.05,1683790475.40625
73.81,1683790475.421875
67.47,1683790475.4375
59.89,1683790475.453125
51.81,1683790475.46875
43.91,1683790475.484375
36.77,1683790475.5
30.79,1683790475.515625
26.16,1683790475.53125
22.82,1683790475.546875
20.59,1683790475.5625
19.18,1683790475.578125
18.30,1683790475.59375
17.59,1683790475.609375
16.70,1683790475.625
15.24,1683790475.640625
12.91,1683790475.65625
9.60,1683790475.671875
5.36,1683790475.6875
0.34,1683790475.703125
-5.31,1683790475.71875
-11.58,1683790475.734375
-18.76,1683790475.75
-27.35,1683790475.765625
-37.76,1683790475.78125
-49.99,1683790475.796875
-63.17,1683790475.8125
-75.47,1683790475.828125
-84.38,1683790475.84375
-87.28,1683790475.859375
-82.34,1683790475.875
-69.11,1683790475.890625
-48.77,1683790475.90625
-23.84,1683790475.921875
2.50,1683790475.9375
27.16,1683790475.953125
47.85,1683790475.96875
63.28,1683790475.984375
73.13,1683790476.0
77.82,1683790476.015625
78.17,1683790476.03125
75.13,1683790476.046875
69.54,1683790476.0625
62.20,1683790476.078125
53.74,1683790476.09375
44.87,1683790476.109375
36.28,1683790476.125
28.70,1683790476.140625
22.68,1683790476.15625
18.49,1683790476.171875
16.03,1683790476.1875
14.88,1683790476.203125
14.43,1683790476.21875
14.07,1683790476.234375
13.33,1683790476.25
11.93,1683790476.265625
9.73,1683790476.28125
6.73,1683790476.296875
2.97,1683790476.3125
-1.42,1683790476.328125
-6.37,1683790476.34375
-11.89,1683790476.359375
-18.19,1683790476.375
-25.70,1683790476.390625
-34.90,1683790476.40625
-45.95,1683790476.421875
-58.31,1683790476.4375
-70.48,1683790476.453125
-80.12,1683790476.46875
-84.59,1683790476.484375
-81.74,1683790476.5
-70.68,1683790476.515625
-52.11,1683790476.53125
-28.20,1683790476.546875
-2.05,1683790476.5625
23.15,1683790476.578125
44.78,1683790476.59375
61.18,1683790476.609375
71.74,1683790476.625
76.67,1683790476.640625
76.67,1683790476.65625
72.67,1683790476.671875
65.61,1683790476.6875
56.45,1683790476.703125
46.16,1683790476.71875
35.78,1683790476.734375
26.33,1683790476.75
18.68,1683790476.765625
13.33,1683790476.78125
10.26,1683790476.796875
8.99,1683790476.8125
8.71,1683790476.828125
8.59,1683790476.84375
8.03,1683790476.859375
6.69,1683790476.875
4.48,1683790476.890625
1.53,1683790476.90625
-2.02,1683790476.921875
-6.02,1683790476.9375
-10.34,1683790476.953125
-15.03,1683790476.96875
-20.29,1683790476.984375
-26.55,1683790477.0
-34.37,1683790477.015625
-44.15,1683790477.03125
-55.82,1683790477.046875
-68.46,1683790477.0625
-80.26,1683790477.078125
-88.76,1683790477.09375
-91.46,1683790477.109375
-86.59,1683790477.125
-73.62,1683790477.140625
-53.60,1683790477.15625
-28.83,1683790477.171875
-2.33,1683790477.1875
22.86,1683790477.203125
44.30,1683790477.21875
60.54,1683790477.234375
71.06,1683790477.25
76.14,1683790477.265625
76.55,1683790477.28125
73.22,1683790477.296875
67.17,1683790477.3125
59.39,1683790477.328125
50.82,1683790477.34375
42.29,1683790477.359375
34.48,1683790477.375
27.87,1683790477.390625
22.74,1683790477.40625
19.17,1683790477.421875
17.10,1683790477.4375
16.34,1683790477.453125
16.53,1683790477.46875
17.17,1683790477.484375
17.60,1683790477.5
17.21,1683790477.515625
15.50,1683790477.53125
12.31,1683790477.546875
7.75,1683790477.5625
2.13,1683790477.578125
-4.17,1683790477.59375
-10.85,1683790477.609375
-17.77,1683790477.625
-25.00,1683790477.640625
-32.80,1683790477.65625
-41.53,1683790477.671875
-51.38,1683790477.6875
-62.09,1683790477.703125
-72.57,1683790477.71875
-80.90,1683790477.734375
-84.65,1683790477.75
-81.55,1683790477.765625
-70.25,1683790477.78125
-50.93,1683790477.796875
-25.33,1683790477.8125
3.67,1683790477.828125
32.80,1683790477.84375
59.13,1683790477.859375
80.66,1683790477.875
96.46,1683790477.890625
106.49,1683790477.90625
111.34,1683790477.921875
111.85,1683790477.9375
108.99,1683790477.953125
103.71,1683790477.96875
96.96,1683790477.984375
89.57,1683790478.0
82.17,1683790478.015625
75.03,1683790478.03125
67.99,1683790478.046875
60.59,1683790478.0625
52.37,1683790478.078125
43.13,1683790478.09375
33.09,1683790478.109375
22.76,1683790478.125
12.65,1683790478.140625
2.99,1683790478.15625
-6.41,1683790478.171875
-16.04,1683790478.1875
-26.36,1683790478.203125
-37.55,1683790478.21875
-49.42,1683790478.234375
-61.43,1683790478.25
-72.92,1683790478.265625
-83.34,1683790478.28125
-92.42,1683790478.296875
-100.27,1683790478.3125
-107.40,1683790478.328125
-114.62,1683790478.34375
-122.78,1683790478.359375
-132.28,1683790478.375
-142.62,1683790478.390625
-152.14,1683790478.40625
-158.22,1683790478.421875
-157.98,1683790478.4375
-149.36,1683790478.453125
-131.90,1683790478.46875
-107.15,1683790478.484375
-78.12,1683790478.5
-48.32,1683790478.515625
-20.66,1683790478.53125
3.11,1683790478.546875
22.36,1683790478.5625
37.15,1683790478.578125
47.78,1683790478.59375
54.53,1683790478.609375
57.89,1683790478.625
58.63,1683790478.640625
57.75,1683790478.65625
56.22,1683790478.671875
54.58,1683790478.6875
52.87,1683790478.703125
50.91,1683790478.71875
48.71,1683790478.734375
46.75,1683790478.75
45.92,1683790478.765625
46.90,1683790478.78125
49.72,1683790478.796875
53.48,1683790478.8125
56.71,1683790478.828125
57.96,1683790478.84375
56.37,1683790478.859375
51.96,1683790478.875
45.39,1683790478.890625
37.60,1683790478.90625
29.32,1683790478.921875
20.91,1683790478.9375
12.35,1683790478.953125
3.36,1683790478.96875
-6.35,1683790478.984375
-16.95,1683790479.0
-28.33,1683790479.015625
-40.09,1683790479.03125
-51.64,1683790479.046875
-62.48,1683790479.0625
-72.29,1683790479.078125
-80.98,1683790479.09375
-88.36,1683790479.109375
-93.90,1683790479.125
-96.58,1683790479.140625
-95.21,1683790479.15625
-88.91,1683790479.171875
-77.67,1683790479.1875
-62.43,1683790479.203125
-44.80,1683790479.21875
-26.58,1683790479.234375
-9.33,1683790479.25
5.76,1683790479.265625
17.86,1683790479.28125
26.48,1683790479.296875
31.62,1683790479.3125
34.05,1683790479.328125
35.22,1683790479.34375
36.98,1683790479.359375
40.88,1683790479.375
47.59,1683790479.390625
56.65,1683790479.40625
66.81,1683790479.421875
76.65,1683790479.4375
85.15,1683790479.453125
91.94,1683790479.46875
97.14,1683790479.484375
100.99,1683790479.5
103.65,1683790479.515625
105.07,1683790479.53125
105.00,1683790479.546875
103.04,1683790479.5625
98.74,1683790479.578125
91.70,1683790479.59375
81.77,1683790479.609375
69.16,1683790479.625
54.63,1683790479.640625
39.37,1683790479.65625
24.75,1683790479.671875
11.76,1683790479.6875
0.59,1683790479.703125
-9.59,1683790479.71875
-20.20,1683790479.734375
-32.68,1683790479.75
-47.73,1683790479.765625
-64.86,1683790479.78125
-82.27,1683790479.796875
-97.26,1683790479.8125
-107.04,1683790479.828125
-109.58,1683790479.84375
-104.32,1683790479.859375
-92.17,1683790479.875
-75.24,1683790479.890625
-56.50,1683790479.90625
-39.02,1683790479.921875
-25.25,1683790479.9375
-16.47,1683790479.953125
-12.92,1683790479.96875
-14.08,1683790479.984375
-19.28,1683790480.0
-27.45,1683790480.015625
-37.36,1683790480.03125
-47.93,1683790480.046875
-58.31,1683790480.0625
-67.89,1683790480.078125
-76.18,1683790480.09375
-83.21,1683790480.109375
-89.59,1683790480.125
-96.50,1683790480.140625
-104.56,1683790480.15625
-113.49,1683790480.171875
-122.63,1683790480.1875
-131.20,1683790480.203125
-138.47,1683790480.21875
-143.52,1683790480.234375
-145.76,1683790480.25
-145.04,1683790480.265625
-141.74,1683790480.28125
-135.75,1683790480.296875
-126.44,1683790480.3125
-113.35,1683790480.328125
-96.63,1683790480.34375
-76.74,1683790480.359375
-53.89,1683790480.375
-28.33,1683790480.390625
1.62,1683790480.40625
34.16,1683790480.421875
65.60,1683790480.4375
95.16,1683790480.453125
125.78,1683790480.46875
161.09,1683790480.484375
200.73,1683790480.5
243.75,1683790480.515625
288.09,1683790480.53125
330.91,1683790480.546875
368.50,1683790480.5625
397.50,1683790480.578125
415.30,1683790480.59375
419.81,1683790480.609375
409.81,1683790480.625
385.84,1683790480.640625
350.98,1683790480.65625
309.82,1683790480.671875
267.05,1683790480.6875
225.72,1683790480.703125
186.84,1683790480.71875
149.43,1683790480.734375
111.12,1683790480.75
69.77,1683790480.765625
25.25,1683790480.78125
-19.64,1683790480.796875
-60.46,1683790480.8125
-92.82,1683790480.828125
-114.15,1683790480.84375
-124.03,1683790480.859375
-123.83,1683790480.875
-116.12,1683790480.890625
-103.72,1683790480.90625
-89.07,1683790480.921875
-74.05,1683790480.9375
-60.62,1683790480.953125
-51.11,1683790480.96875
-48.06,1683790480.984375
-53.41,1683790481.0
-67.57,1683790481.015625
-89.03,1683790481.03125
-114.36,1683790481.046875
-138.90,1683790481.0625
-157.91,1683790481.078125
-168.14,1683790481.09375
-168.68,1683790481.109375
-161.09,1683790481.125
-148.46,1683790481.140625
-134.23,1683790481.15625
-121.03,1683790481.171875
-110.03,1683790481.1875
-100.83,1683790481.203125
-91.90,1683790481.21875
-81.28,1683790481.234375
-67.18,1683790481.25
-48.61,1683790481.265625
-25.73,1683790481.28125
-0.03,1683790481.296875
25.80,1683790481.3125
48.47,1683790481.328125
64.96,1683790481.34375
73.49,1683790481.359375
74.08,1683790481.375
68.52,1683790481.390625
59.72,1683790481.40625
50.65,1683790481.421875
43.55,1683790481.4375
39.44,1683790481.453125
38.21,1683790481.46875
38.98,1683790481.484375
40.74,1683790481.5
42.71,1683790481.515625
44.50,1683790481.53125
46.04,1683790481.546875
47.39,1683790481.5625
48.58,1683790481.578125
49.44,1683790481.59375
49.72,1683790481.609375
49.01,1683790481.625
46.92,1683790481.640625
43.17,1683790481.65625
37.71,1683790481.671875
30.76,1683790481.6875
22.83,1683790481.703125
14.51,1683790481.71875
6.19,1683790481.734375
-2.17,1683790481.75
-10.97,1683790481.765625
-20.82,1683790481.78125
-32.17,1683790481.796875
-44.94,1683790481.8125
-58.51,1683790481.828125
-71.75,1683790481.84375
-83.47,1683790481.859375
-92.70,1683790481.875
-98.68,1683790481.890625
-100.87,1683790481.90625
-98.75,1683790481.921875
-92.05,1683790481.9375
-80.96,1683790481.953125
-66.57,1683790481.96875
-50.76,1683790481.984375
-35.86,1683790482.0
-24.02,1683790482.015625
-16.60,1683790482.03125
-13.81,1683790482.046875
-14.85,1683790482.0625
-18.33,1683790482.078125
-22.81,1683790482.09375
-27.27,1683790482.109375
-31.31,1683790482.125
-35.06,1683790482.140625
-38.89,1683790482.15625
-43.06,1683790482.171875
-47.43,1683790482.1875
-51.39,1683790482.203125
-54.00,1683790482.21875
-54.43,1683790482.234375
-52.39,1683790482.25
-48.41,1683790482.265625
-43.71,1683790482.28125
-39.73,1683790482.296875
-37.58,1683790482.3125
-37.56,1683790482.328125
-39.16,1683790482.34375
-41.44,1683790482.359375
-43.62,1683790482.375
-45.50,1683790482.390625
-47.53,1683790482.40625
-50.61,1683790482.421875
-55.57,1683790482.4375
-62.73,1683790482.453125
-71.67,1683790482.46875
-81.25,1683790482.484375
-89.85,1683790482.5
-95.70,1683790482.515625
-97.25,1683790482.53125
-93.47,1683790482.546875
-84.11,1683790482.5625
-69.76,1683790482.578125
-51.79,1683790482.59375
-31.99,1683790482.609375
-12.17,1683790482.625
6.18,1683790482.640625
22.10,1683790482.65625
35.01,1683790482.671875
44.57,1683790482.6875
50.34,1683790482.703125
51.87,1683790482.71875
48.75,1683790482.734375
41.04,1683790482.75
29.46,1683790482.765625
15.57,1683790482.78125
1.46,1683790482.796875
-10.71,1683790482.8125
-19.30,1683790482.828125
-23.55,1683790482.84375
-23.64,1683790482.859375
-20.44,1683790482.875
-15.06,1683790482.890625
-8.58,1683790482.90625
-1.87,1683790482.921875
4.41,1683790482.9375
9.69,1683790482.953125
13.51,1683790482.96875
15.53,1683790482.984375
15.73,1683790483.0
14.39,1683790483.015625
11.97,1683790483.03125
8.87,1683790483.046875
5.13,1683790483.0625
0.42,1683790483.078125
-5.79,1683790483.09375
-13.70,1683790483.109375
-22.74,1683790483.125
-31.35,1683790483.140625
-37.26,1683790483.15625
-38.13,1683790483.171875
-32.26,1683790483.1875
-19.29,1683790483.203125
-0.28,1683790483.21875
22.49,1683790483.234375
46.31,1683790483.25
68.79,1683790483.265625
88.41,1683790483.28125
104.66,1683790483.296875
117.79,1683790483.3125
128.27,1683790483.328125
136.46,1683790483.34375
142.44,1683790483.359375
146.16,1683790483.375
147.67,1683790483.390625
147.26,1683790483.40625
145.33,1683790483.421875
142.22,1683790483.4375
138.02,1683790483.453125
132.53,1683790483.46875
125.42,1683790483.484375
116.49,1683790483.5
105.86,1683790483.515625
93.92,1683790483.53125
81.30,1683790483.546875
68.62,1683790483.5625
56.35,1683790483.578125
44.73,1683790483.59375
33.72,1683790483.609375
23.01,1683790483.625
12.16,1683790483.640625
0.59,1683790483.65625
-12.35,1683790483.671875
-27.36,1683790483.6875
-45.19,1683790483.703125
-66.57,1683790483.71875
-91.75,1683790483.734375
-120.05,1683790483.75
-149.45,1683790483.765625
-176.60,1683790483.78125
-197.50,1683790483.796875
-208.58,1683790483.8125
-207.71,1683790483.828125
-194.86,1683790483.84375
-171.91,1683790483.859375
-142.08,1683790483.875
-109.06,1683790483.890625
-76.37,1683790483.90625
-46.84,1683790483.921875
-22.61,1683790483.9375
-4.96,1683790483.953125
5.73,1683790483.96875
9.89,1683790483.984375
8.72,1683790484.0
3.80,1683790484.015625
-3.23,1683790484.03125
-10.98,1683790484.046875
-18.30,1683790484.0625
-24.18,1683790484.078125
-27.57,1683790484.09375
-27.47,1683790484.109375
-23.26,1683790484.125
-15.14,1683790484.140625
-4.33,1683790484.15625
7.05,1683790484.171875
16.53,1683790484.1875
22.06,1683790484.203125
22.48,1683790484.21875
17.81,1683790484.234375
9.02,1683790484.25
-2.45,1683790484.265625
-15.15,1683790484.28125
-27.99,1683790484.296875
-40.34,1683790484.3125
-52.01,1683790484.328125
-63.05,1683790484.34375
-73.60,1683790484.359375
-83.65,1683790484.375
-92.74,1683790484.390625
-99.87,1683790484.40625
-103.43,1683790484.421875
-101.50,1683790484.4375
-92.41,1683790484.453125
-75.32,1683790484.46875
-50.72,1683790484.484375
-20.73,1683790484.5
11.28,1683790484.515625
41.33,1683790484.53125
65.86,1683790484.546875
82.67,1683790484.5625
91.35,1683790484.578125
93.12,1683790484.59375
90.03,1683790484.609375
84.10,1683790484.625
76.67,1683790484.640625
68.35,1683790484.65625
59.29,1683790484.671875
49.83,1683790484.6875
40.67,1683790484.703125
32.84,1683790484.71875
27.28,1683790484.734375
24.41,1683790484.75
23.97,1683790484.765625
25.17,1683790484.78125
27.01,1683790484.796875
28.58,1683790484.8125
29.31,1683790484.828125
28.80,1683790484.84375
26.84,1683790484.859375
23.32,1683790484.875
18.27,1683790484.890625
11.91,1683790484.90625
4.60,1683790484.921875
-3.32,1683790484.9375
-11.74,1683790484.953125
-20.94,1683790484.96875
-31.49,1683790484.984375
-43.76,1683790485.0
-57.44,1683790485.015625
-71.13,1683790485.03125
-82.38,1683790485.046875
-88.37,1683790485.0625
-86.74,1683790485.078125
-76.43,1683790485.09375
-58.02,1683790485.109375
-33.50,1683790485.125
-5.65,1683790485.140625
22.65,1683790485.15625
48.86,1683790485.171875
71.09,1683790485.1875
88.18,1683790485.203125
99.68,1683790485.21875
105.76,1683790485.234375
107.12,1683790485.25
104.74,1683790485.265625
99.67,1683790485.28125
92.83,1683790485.296875
84.93,1683790485.3125
76.57,1683790485.328125
68.26,1683790485.34375
60.44,1683790485.359375
53.45,1683790485.375
47.40,1683790485.390625
42.27,1683790485.40625
37.89,1683790485.421875
34.04,1683790485.4375
30.43,1683790485.453125
26.74,1683790485.46875
22.58,1683790485.484375
17.62,1683790485.5
11.72,1683790485.515625
4.93,1683790485.53125
-2.44,1683790485.546875
-10.04,1683790485.5625
-17.64,1683790485.578125
-25.33,1683790485.59375
-33.59,1683790485.609375
-43.11,1683790485.625
-54.39,1683790485.640625
-67.21,1683790485.65625
-80.32,1683790485.671875
-91.37,1683790485.6875
-97.46,1683790485.703125
-95.95,1683790485.71875
-85.42,1683790485.734375
-66.21,1683790485.75
-40.43,1683790485.765625
-11.32,1683790485.78125
17.63,1683790485.796875
43.49,1683790485.8125
64.38,1683790485.828125
79.54,1683790485.84375
89.06,1683790485.859375
93.56,1683790485.875
93.87,1683790485.890625
90.89,1683790485.90625
85.44,1683790485.921875
78.24,1683790485.9375
69.96,1683790485.953125
61.26,1683790485.96875
52.82,1683790485.984375
45.38,1683790486.0
39.71,1683790486.015625
36.43,1683790486.03125
35.79,1683790486.046875
37.47,1683790486.0625
40.48,1683790486.078125
43.35,1683790486.09375
44.44,1683790486.109375
42.50,1683790486.125
36.98,1683790486.140625
28.13,1683790486.15625
16.82,1683790486.171875
4.12,1683790486.1875
-9.08,1683790486.203125
-22.26,1683790486.21875
-35.28,1683790486.234375
-48.24,1683790486.25
-61.37,1683790486.265625
-74.85,1683790486.28125
-88.66,1683790486.296875
-102.36,1683790486.3125
-114.85,1683790486.328125
-124.28,1683790486.34375
-128.36,1683790486.359375
-125.02,1683790486.375
-113.20,1683790486.390625
-93.35,1683790486.40625
-67.48,1683790486.421875
-38.65,1683790486.4375
-10.10,1683790486.453125
15.57,1683790486.46875
36.88,1683790486.484375
53.44,1683790486.5
65.67,1683790486.515625
74.21,1683790486.53125
79.66,1683790486.546875
82.36,1683790486.5625
82.49,1683790486.578125
80.23,1683790486.59375
75.99,1683790486.609375
70.35,1683790486.625
64.05,1683790486.640625
57.72,1683790486.65625
51.77,1683790486.671875
46.34,1683790486.6875
41.40,1683790486.703125
36.88,1683790486.71875
32.72,1683790486.734375
28.87,1683790486.75
25.09,1683790486.765625
20.99,1683790486.78125
16.03,1683790486.796875
9.82,1683790486.8125
2.30,1683790486.828125
-6.17,1683790486.84375
-14.93,1683790486.859375
-23.38,1683790486.875
-31.25,1683790486.890625
-38.81,1683790486.90625
-46.73,1683790486.921875
-55.73,1683790486.9375
-66.03,1683790486.953125
-76.96,1683790486.96875
-86.92,1683790486.984375
-93.73,1683790487.0
-95.33,1683790487.015625
-90.51,1683790487.03125
-79.37,1683790487.046875
-63.30,1683790487.0625
-44.58,1683790487.078125
-25.60,1683790487.09375
-8.31,1683790487.109375
6.07,1683790487.125
17.09,1683790487.140625
24.82,1683790487.15625
29.62,1683790487.171875
31.97,1683790487.1875
32.42,1683790487.203125
31.52,1683790487.21875
29.85,1683790487.234375
27.88,1683790487.25
26.01,1683790487.265625
24.56,1683790487.28125
23.75,1683790487.296875
23.70,1683790487.3125
24.48,1683790487.328125
26.16,1683790487.34375
28.89,1683790487.359375
32.85,1683790487.375
38.14,1683790487.390625
44.54,1683790487.40625
51.31,1683790487.421875
57.27,1683790487.4375
61.11,1683790487.453125
61.86,1683790487.46875
59.27,1683790487.484375
53.94,1683790487.5
47.02,1683790487.515625
39.67,1683790487.53125
32.60,1683790487.546875
25.80,1683790487.5625
18.68,1683790487.578125
10.39,1683790487.59375
0.26,1683790487.609375
-11.74,1683790487.625
-24.84,1683790487.640625
-37.39,1683790487.65625
-47.13,1683790487.671875
-51.68,1683790487.6875
-49.13,1683790487.703125
-38.72,1683790487.71875
-21.15,1683790487.734375
1.42,1683790487.75
25.90,1683790487.765625
49.07,1683790487.78125
68.26,1683790487.796875
81.92,1683790487.8125
89.70,1683790487.828125
92.17,1683790487.84375
90.43,1683790487.859375
85.73,1683790487.875
79.22,1683790487.890625
71.92,1683790487.90625
64.62,1683790487.921875
57.94,1683790487.9375
52.23,1683790487.953125
47.62,1683790487.96875
44.05,1683790487.984375
41.45,1683790488.0
39.83,1683790488.015625
39.32,1683790488.03125
40.00,1683790488.046875
41.80,1683790488.0625
44.33,1683790488.078125
46.96,1683790488.09375
48.95,1683790488.109375
49.59,1683790488.125
48.42,1683790488.140625
45.20,1683790488.15625
39.98,1683790488.171875
33.06,1683790488.1875
24.94,1683790488.203125
16.30,1683790488.21875
7.74,1683790488.234375
-0.50,1683790488.25
-8.75,1683790488.265625
-17.92,1683790488.28125
-29.10,1683790488.296875
-42.94,1683790488.3125
-58.95,1683790488.328125
-75.25,1683790488.34375
-88.94,1683790488.359375
-96.91,1683790488.375
-96.81,1683790488.390625
-87.67,1683790488.40625
-70.16,1683790488.421875
-46.32,1683790488.4375
-18.94,1683790488.453125
8.86,1683790488.46875
34.11,1683790488.484375
54.31,1683790488.5
67.66,1683790488.515625
73.35,1683790488.53125
71.67,1683790488.546875
63.97,1683790488.5625
52.32,1683790488.578125
38.99,1683790488.59375
25.93,1683790488.609375
14.48,1683790488.625
5.23,1683790488.640625
-1.91,1683790488.65625
-7.52,1683790488.671875
-12.37,1683790488.6875
-17.16,1683790488.703125
-22.35,1683790488.71875
-28.14,1683790488.734375
-34.58,1683790488.75
-41.72,1683790488.765625
-49.64,1683790488.78125
-58.37,1683790488.796875
-67.66,1683790488.8125
-76.91,1683790488.828125
-85.27,1683790488.84375
-91.91,1683790488.859375
-96.37,1683790488.875
-98.76,1683790488.890625
-99.73,1683790488.90625
-100.24,1683790488.921875
-101.33,1683790488.9375
-103.79,1683790488.953125
-108.00,1683790488.96875
-113.67,1683790488.984375
-119.77,1683790489.0
-124.48,1683790489.015625
-125.48,1683790489.03125
-120.58,1683790489.046875
-108.43,1683790489.0625
-89.06,1683790489.078125
-63.98,1683790489.09375
-35.79,1683790489.109375
-7.50,1683790489.125
18.25,1683790489.140625
39.51,1683790489.15625
55.22,1683790489.171875
65.10,1683790489.1875
69.38,1683790489.203125
68.79,1683790489.21875
64.41,1683790489.234375
57.59,1683790489.25
49.77,1683790489.265625
42.15,1683790489.28125
35.54,1683790489.296875
30.24,1683790489.3125
26.20,1683790489.328125
23.17,1683790489.34375
20.98,1683790489.359375
19.52,1683790489.375
18.78,1683790489.390625
18.71,1683790489.40625
19.08,1683790489.421875
19.54,1683790489.4375
19.62,1683790489.453125
18.81,1683790489.46875
16.72,1683790489.484375
13.20,1683790489.5
8.36,1683790489.515625
2.59,1683790489.53125
-3.56,1683790489.546875
-9.70,1683790489.5625
-15.71,1683790489.578125
-21.99,1683790489.59375
-29.30,1683790489.609375
-38.43,1683790489.625
-49.68,1683790489.640625
-62.47,1683790489.65625
-75.17,1683790489.671875
-85.38,1683790489.6875
-90.57,1683790489.703125
-88.78,1683790489.71875
-79.24,1683790489.734375
-62.69,1683790489.75
-41.05,1683790489.765625
-16.99,1683790489.78125
6.82,1683790489.796875
28.15,1683790489.8125
45.57,1683790489.828125
58.43,1683790489.84375
66.69,1683790489.859375
70.77,1683790489.875
71.34,1683790489.890625
69.26,1683790489.90625
65.42,1683790489.921875
60.67,1683790489.9375
55.74,1683790489.953125
51.12,1683790489.96875
47.05,1683790489.984375
43.57,1683790490.0
40.56,1683790490.015625
37.90,1683790490.03125
35.54,1683790490.046875
33.59,1683790490.0625
32.23,1683790490.078125
31.59,1683790490.09375
31.51,1683790490.109375
31.48,1683790490.125
30.74,1683790490.140625
28.49,1683790490.15625
24.28,1683790490.171875
18.21,1683790490.1875
11.00,1683790490.203125
3.66,1683790490.21875
-2.91,1683790490.234375
-8.28,1683790490.25
-12.78,1683790490.265625
-17.32,1683790490.28125
-23.14,1683790490.296875
-31.33,1683790490.3125
-42.35,1683790490.328125
-55.75,1683790490.34375
-69.97,1683790490.359375
-82.58,1683790490.375
-90.82,1683790490.390625
-92.28,1683790490.40625
-85.68,1683790490.421875
-71.29,1683790490.4375
-50.90,1683790490.453125
-27.35,1683790490.46875
-3.75,1683790490.484375
17.20,1683790490.5
33.77,1683790490.515625
45.26,1683790490.53125
51.75,1683790490.546875
53.77,1683790490.5625
52.08,1683790490.578125
47.55,1683790490.59375
41.13,1683790490.609375
33.85,1683790490.625
26.61,1683790490.640625
20.15,1683790490.65625
14.82,1683790490.671875
10.65,1683790490.6875
7.47,1683790490.703125
5.15,1683790490.71875
3.67,1683790490.734375
3.11,1683790490.75
3.48,1683790490.765625
4.48,1683790490.78125
5.54,1683790490.796875
5.85,1683790490.8125
4.73,1683790490.828125
1.89,1683790490.84375
-2.44,1683790490.859375
-7.63,1683790490.875
-12.90,1683790490.890625
-17.67,1683790490.90625
-21.74,1683790490.921875
-25.34,1683790490.9375
-29.10,1683790490.953125
-33.80,1683790490.96875
-40.18,1683790490.984375
-48.64,1683790491.0
-58.94,1683790491.015625
-69.94,1683790491.03125
-79.66,1683790491.046875
-85.65,1683790491.0625
-85.66,1683790491.078125
-78.39,1683790491.09375
-64.01,1683790491.109375
-44.19,1683790491.125
-21.60,1683790491.140625
0.85,1683790491.15625
20.68,1683790491.171875
36.32,1683790491.1875
47.16,1683790491.203125
53.30,1683790491.21875
55.28,1683790491.234375
53.81,1683790491.25
49.66,1683790491.265625
43.62,1683790491.28125
36.52,1683790491.296875
29.20,1683790491.3125
22.47,1683790491.328125
16.94,1683790491.34375
12.89,1683790491.359375
10.29,1683790491.375
8.81,1683790491.390625
8.09,1683790491.40625
7.81,1683790491.421875
7.86,1683790491.4375
8.20,1683790491.453125
8.72,1683790491.46875
9.12,1683790491.484375
8.90,1683790491.5
7.55,1683790491.515625
4.79,1683790491.53125
0.70,1683790491.546875
-4.28,1683790491.5625
-9.59,1683790491.578125
-14.79,1683790491.59375
-19.74,1683790491.609375
-24.69,1683790491.625
-30.32,1683790491.640625
-37.42,1683790491.65625
-46.59,1683790491.671875
-57.79,1683790491.6875
-69.82,1683790491.703125
-80.23,1683790491.71875
-85.77,1683790491.734375
-83.25,1683790491.75
-70.71,1683790491.765625
-48.28,1683790491.78125
-18.30,1683790491.796875
15.21,1683790491.8125
47.79,1683790491.828125
75.64,1683790491.84375
96.35,1683790491.859375
109.04,1683790491.875
114.01,1683790491.890625
112.25,1683790491.90625
105.14,1683790491.921875
94.27,1683790491.9375
81.27,1683790491.953125
67.71,1683790491.96875
54.79,1683790491.984375
43.19,1683790492.0
33.04,1683790492.015625
24.16,1683790492.03125
16.30,1683790492.046875
9.43,1683790492.0625
3.71,1683790492.078125
-0.65,1683790492.09375
-3.69,1683790492.109375
-5.77,1683790492.125
-7.56,1683790492.140625
-9.75,1683790492.15625
-12.83,1683790492.171875
-16.93,1683790492.1875
-21.86,1683790492.203125
-27.30,1683790492.21875
-32.91,1683790492.234375
-38.47,1683790492.25
-43.96,1683790492.265625
-49.53,1683790492.28125
-55.56,1683790492.296875
-62.58,1683790492.3125
-71.07,1683790492.328125
-81.07,1683790492.34375
-91.84,1683790492.359375
-101.71,1683790492.375
-108.26,1683790492.390625
-108.96,1683790492.40625
-101.98,1683790492.421875
-86.91,1683790492.4375
-64.97,1683790492.453125
-38.75,1683790492.46875
-11.53,1683790492.484375
13.56,1683790492.5
34.16,1683790492.515625
49.05,1683790492.53125
58.05,1683790492.546875
61.77,1683790492.5625
61.27,1683790492.578125
57.74,1683790492.59375
52.28,1683790492.609375
45.78,1683790492.625
38.93,1683790492.640625
32.20,1683790492.65625
26.02,1683790492.671875
20.73,1683790492.6875
16.63,1683790492.703125
13.90,1683790492.71875
12.53,1683790492.734375
12.30,1683790492.75
12.77,1683790492.765625
13.40,1683790492.78125
13.64,1683790492.796875
13.08,1683790492.8125
11.49,1683790492.828125
8.87,1683790492.84375
5.38,1683790492.859375
1.22,1683790492.875
-3.40,1683790492.890625
-8.44,1683790492.90625
-14.00,1683790492.921875
-20.40,1683790492.9375
-28.03,1683790492.953125
-37.23,1683790492.96875
-47.97,1683790492.984375
-59.58,1683790493.0
-70.55,1683790493.015625
-78.70,1683790493.03125
-81.61,1683790493.046875
-77.32,1683790493.0625
-65.10,1683790493.078125
-45.84,1683790493.09375
-21.95,1683790493.109375
3.26,1683790493.125
26.48,1683790493.140625
45.25,1683790493.15625
58.35,1683790493.171875
65.78,1683790493.1875
68.34,1683790493.203125
67.04,1683790493.21875
62.78,1683790493.234375
56.19,1683790493.25
47.81,1683790493.265625
38.33,1683790493.28125
28.65,1683790493.296875
19.87,1683790493.3125
12.94,1683790493.328125
8.41,1683790493.34375
6.20,1683790493.359375
5.75,1683790493.375
6.23,1683790493.390625
6.81,1683790493.40625
6.96,1683790493.421875
6.37,1683790493.4375
4.95,1683790493.453125
2.71,1683790493.46875
-0.36,1683790493.484375
-4.26,1683790493.5
-8.97,1683790493.515625
-14.47,1683790493.53125
-20.76,1683790493.546875
-27.95,1683790493.5625
-36.25,1683790493.578125
-45.87,1683790493.59375
-56.78,1683790493.609375
-68.40,1683790493.625
-79.37,1683790493.640625
-87.60,1683790493.65625
-90.73,1683790493.671875
-86.78,1683790493.6875
-74.86,1683790493.703125
-55.63,1683790493.71875
-31.32,1683790493.734375
-5.10,1683790493.75
19.69,1683790493.765625
40.47,1683790493.78125
55.80,1683790493.796875
65.45,1683790493.8125
69.98,1683790493.828125
70.29,1683790493.84375
67.26,1683790493.859375
61.63,1683790493.875
54.12,1683790493.890625
45.50,1683790493.90625
36.64,1683790493.921875
28.45,1683790493.9375
21.62,1683790493.953125
16.54,1683790493.96875
13.20,1683790493.984375
11.28,1683790494.0
10.24,1683790494.015625
9.53,1683790494.03125
8.65,1683790494.046875
7.24,1683790494.0625
5.15,1683790494.078125
2.38,1683790494.09375
-0.97,1683790494.109375
-4.81,1683790494.125
-9.17,1683790494.140625
-14.20,1683790494.15625
-20.18,1683790494.171875
-27.43,1683790494.1875
-36.27,1683790494.203125
-46.88,1683790494.21875
-59.12,1683790494.234375
-72.27,1683790494.25
-84.84,1683790494.265625
-94.61,1683790494.28125
-99.05,1683790494.296875
-96.00,1683790494.3125
-84.44,1683790494.328125
-65.00,1683790494.34375
-39.93,1683790494.359375
-12.46,1683790494.375
14.05,1683790494.390625
36.94,1683790494.40625
54.70,1683790494.421875
66.95,1683790494.4375
74.07,1683790494.453125
76.82,1683790494.46875
76.00,1683790494.484375
72.41,1683790494.5
66.80,1683790494.515625
59.99,1683790494.53125
52.75,1683790494.546875
45.78,1683790494.5625
39.60,1683790494.578125
34.50,1683790494.59375
30.60,1683790494.609375
27.83,1683790494.625
26.02,1683790494.640625
24.84,1683790494.65625
23.85,1683790494.671875
22.50,1683790494.6875
20.29,1683790494.703125
16.96,1683790494.71875
12.55,1683790494.734375
7.40,1683790494.75
1.91,1683790494.765625
-3.64,1683790494.78125
-9.33,1683790494.796875
-15.55,1683790494.8125
-22.85,1683790494.828125
-31.70,1683790494.84375
-42.39,1683790494.859375
-54.74,1683790494.875
-68.01,1683790494.890625
-80.72,1683790494.90625
-90.69,1683790494.921875
-95.43,1683790494.9375
-92.78,1683790494.953125
-81.76,1683790494.96875
-63.02,1683790494.984375
-38.81,1683790495.0
-12.36,1683790495.015625
13.04,1683790495.03125
34.92,1683790495.046875
51.98,1683790495.0625
64.00,1683790495.078125
71.35,1683790495.09375
74.63,1683790495.109375
74.42,1683790495.125
71.35,1683790495.140625
66.15,1683790495.15625
59.75,1683790495.171875
53.03,1683790495.1875
46.70,1683790495.203125
41.15,1683790495.21875
36.37,1683790495.234375
32.23,1683790495.25
28.57,1683790495.265625
25.47,1683790495.28125
23.08,1683790495.296875
21.54,1683790495.3125
20.69,1683790495.328125
19.99,1683790495.34375
18.64,1683790495.359375
15.90,1683790495.375
11.40,1683790495.390625
5.38,1683790495.40625
-1.49,1683790495.421875
-8.35,1683790495.4375
-14.52,1683790495.453125
-19.79,1683790495.46875
-24.47,1683790495.484375
-29.32,1683790495.5
-35.28,1683790495.515625
-43.18,1683790495.53125
-53.34,1683790495.546875
-65.18,1683790495.5625
-77.10,1683790495.578125
-86.52,1683790495.59375
-90.54,1683790495.609375
-86.73,1683790495.625
-74.04,1683790495.640625
-53.22,1683790495.65625
-26.78,1683790495.671875
1.78,1683790495.6875
28.93,1683790495.703125
51.96,1683790495.71875
69.40,1683790495.734375
80.99,1683790495.75
87.26,1683790495.765625
89.09,1683790495.78125
87.37,1683790495.796875
82.93,1683790495.8125
76.52,1683790495.828125
68.94,1683790495.84375
61.01,1683790495.859375
53.51,1683790495.875
47.02,1683790495.890625
41.91,1683790495.90625
38.23,1683790495.921875
35.80,1683790495.9375
34.30,1683790495.953125
33.34,1683790495.96875
32.51,1683790495.984375
31.45,1683790496.0
29.80,1683790496.015625
27.29,1683790496.03125
23.67,1683790496.046875
18.85,1683790496.0625
12.92,1683790496.078125
6.16,1683790496.09375
-0.99,1683790496.109375
-8.11,1683790496.125
-14.98,1683790496.140625
-21.75,1683790496.15625
-28.99,1683790496.171875
-37.42,1683790496.1875
-47.54,1683790496.203125
-59.09,1683790496.21875
-70.75,1683790496.234375
-80.24,1683790496.25
-84.92,1683790496.265625
-82.63,1683790496.28125
-72.43,1683790496.296875
-55.01,1683790496.3125
-32.54,1683790496.328125
-7.98,1683790496.34375
15.69,1683790496.359375
36.15,1683790496.375
52.03,1683790496.390625
62.88,1683790496.40625
68.85,1683790496.421875
70.42,1683790496.4375
68.18,1683790496.453125
62.88,1683790496.46875
55.47,1683790496.484375
47.13,1683790496.5
39.13,1683790496.515625
32.61,1683790496.53125
28.21,1683790496.546875
25.93,1683790496.5625
25.19,1683790496.578125
25.16,1683790496.59375
25.11,1683790496.609375
24.73,1683790496.625
24.07,1683790496.640625
23.29,1683790496.65625
22.35,1683790496.671875
20.83,1683790496.6875
18.04,1683790496.703125
13.38,1683790496.71875
6.65,1683790496.734375
-1.79,1683790496.75
-11.11,1683790496.765625
-20.29,1683790496.78125
-28.51,1683790496.796875
-35.32,1683790496.8125
-40.81,1683790496.828125
-45.52,1683790496.84375
-50.38,1683790496.859375
-56.43,1683790496.875
-64.46,1683790496.890625
-74.56,1683790496.90625
-85.77,1683790496.921875
-95.94,1683790496.9375
-102.20,1683790496.953125
-101.78,1683790496.96875
-92.97,1683790496.984375
-75.86,1683790497.0
-52.35,1683790497.015625
-25.52,1683790497.03125
1.21,1683790497.046875
25.08,1683790497.0625
44.38,1683790497.078125
58.52,1683790497.09375
67.68,1683790497.109375
72.41,1683790497.125
73.45,1683790497.140625
71.51,1683790497.15625
67.37,1683790497.171875
61.88,1683790497.1875
55.87,1683790497.203125
50.05,1683790497.21875
44.90,1683790497.234375
40.63,1683790497.25
37.12,1683790497.265625
34.07,1683790497.28125
31.18,1683790497.296875
28.31,1683790497.3125
25.58,1683790497.328125
23.27,1683790497.34375
21.69,1683790497.359375
20.84,1683790497.375
20.28,1683790497.390625
19.24,1683790497.40625
16.81,1683790497.421875
12.37,1683790497.4375
5.89,1683790497.453125
-2.07,1683790497.46875
-10.54,1683790497.484375
-18.57,1683790497.5
-25.51,1683790497.515625
-31.29,1683790497.53125
-36.37,1683790497.546875
-41.51,1683790497.5625
-47.55,1683790497.578125
-55.12,1683790497.59375
-64.40,1683790497.609375
-74.83,1683790497.625
-85.06,1683790497.640625
-92.95,1683790497.65625
-96.11,1683790497.671875
-92.53,1683790497.6875
-81.33,1683790497.703125
-63.19,1683790497.71875
-40.17,1683790497.734375
-15.24,1683790497.75
8.69,1683790497.765625
29.32,1683790497.78125
45.42,1683790497.796875
56.57,1683790497.8125
63.02,1683790497.828125
65.27,1683790497.84375
64.01,1683790497.859375
60.09,1683790497.875
54.49,1683790497.890625
48.28,1683790497.90625
42.33,1683790497.921875
37.22,1683790497.9375
33.15,1683790497.953125
30.02,1683790497.96875
27.60,1683790497.984375
25.66,1683790498.0
24.04,1683790498.015625
22.74,1683790498.03125
21.77,1683790498.046875
21.08,1683790498.0625
20.53,1683790498.078125
19.82,1683790498.09375
18.48,1683790498.109375
16.06,1683790498.125
12.28,1683790498.140625
7.18,1683790498.15625
1.19,1683790498.171875
-5.07,1683790498.1875
-10.97,1683790498.203125
-16.26,1683790498.21875
-21.12,1683790498.234375
-26.18,1683790498.25
-32.26,1683790498.265625
-40.03,1683790498.28125
-49.64,1683790498.296875
-60.45,1683790498.3125
-70.96,1683790498.328125
-79.01,1683790498.34375
-82.28,1683790498.359375
-78.97,1683790498.375
-68.40,1683790498.390625
-51.43,1683790498.40625
-30.18,1683790498.421875
-7.54,1683790498.4375
13.76,1683790498.453125
31.65,1683790498.46875
45.09,1683790498.484375
53.84,1683790498.5
58.12,1683790498.515625
58.38,1683790498.53125
55.21,1683790498.546875
49.37,1683790498.5625
41.86,1683790498.578125
33.84,1683790498.59375
26.38,1683790498.609375
20.22,1683790498.625
15.66,1683790498.640625
12.59,1683790498.65625
10.71,1683790498.671875
9.74,1683790498.6875
9.49,1683790498.703125
9.82,1683790498.71875
10.51,1683790498.734375
11.14,1683790498.75
11.19,1683790498.765625
10.11,1683790498.78125
7.58,1683790498.796875
3.54,1683790498.8125
-1.72,1683790498.828125
-7.71,1683790498.84375
-13.85,1683790498.859375
-19.71,1683790498.875
-25.12,1683790498.890625
-30.25,1683790498.90625
-35.62,1683790498.921875
-41.94,1683790498.9375
-49.82,1683790498.953125
-59.39,1683790498.96875
-69.91,1683790498.984375
-79.73,1683790499.0
-86.53,1683790499.015625
-87.96,1683790499.03125
-82.41,1683790499.046875
-69.60,1683790499.0625
-50.78,1683790499.078125
-28.36,1683790499.09375
-5.18,1683790499.109375
16.12,1683790499.125
33.72,1683790499.140625
46.73,1683790499.15625
55.02,1683790499.171875
58.99,1683790499.1875
59.25,1683790499.203125
56.54,1683790499.21875
51.69,1683790499.234375
45.58,1683790499.25
39.10,1683790499.265625
33.04,1683790499.28125
27.97,1683790499.296875
24.12,1683790499.3125
21.40,1683790499.328125
19.51,1683790499.34375
18.07,1683790499.359375
16.84,1683790499.375
15.78,1683790499.390625
15.00,1683790499.40625
14.60,1683790499.421875
14.43,1683790499.4375
14.01,1683790499.453125
12.66,1683790499.46875
9.75,1683790499.484375
5.07,1683790499.5
-1.10,1683790499.515625
-8.05,1683790499.53125
-14.96,1683790499.546875
-21.20,1683790499.5625
-26.54,1683790499.578125
-31.19,1683790499.59375
-35.71,1683790499.609375
-40.85,1683790499.625
-47.34,1683790499.640625
-55.63,1683790499.65625
-65.51,1683790499.671875
-75.87,1683790499.6875
-84.62,1683790499.703125
-89.16,1683790499.71875
-87.13,1683790499.734375
-77.36,1683790499.75
-60.33,1683790499.765625
-38.15,1683790499.78125
-13.85,1683790499.796875
9.57,1683790499.8125
29.87,1683790499.828125
45.84,1683790499.84375
57.18,1683790499.859375
64.09,1683790499.875
66.97,1683790499.890625
66.35,1683790499.90625
62.89,1683790499.921875
57.46,1683790499.9375
51.06,1683790499.953125
44.66,1683790499.96875
38.92,1683790499.984375
34.15,1683790500.0
30.32,1683790500.015625
27.21,1683790500.03125
24.59,1683790500.046875
22.34,1683790500.0625
20.44,1683790500.078125
19.03,1683790500.09375
18.21,1683790500.109375
17.95,1683790500.125
17.97,1683790500.140625
17.74,1683790500.15625
16.59,1683790500.171875
13.90,1683790500.1875
9.43,1683790500.203125
3.39,1683790500.21875
-3.57,1683790500.234375
-10.60,1683790500.25
-17.01,1683790500.265625
-22.47,1683790500.28125
-27.20,1683790500.296875
-31.79,1683790500.3125
-37.03,1683790500.328125
-43.59,1683790500.34375
-51.80,1683790500.359375
-61.43,1683790500.375
-71.53,1683790500.390625
-80.48,1683790500.40625
-86.19,1683790500.421875
-86.60,1683790500.4375
-80.29,1683790500.453125
-67.00,1683790500.46875
-47.89,1683790500.484375
-25.23,1683790500.5
-1.82,1683790500.515625
19.72,1683790500.53125
37.49,1683790500.546875
50.52,1683790500.5625
58.63,1683790500.578125
62.15,1683790500.59375
61.69,1683790500.609375
57.98,1683790500.625
51.94,1683790500.640625
44.61,1683790500.65625
37.06,1683790500.671875
30.23,1683790500.6875
24.68,1683790500.703125
20.56,1683790500.71875
17.70,1683790500.734375
15.77,1683790500.75
14.56,1683790500.765625
13.98,1683790500.78125
14.04,1683790500.796875
14.67,1683790500.8125
15.53,1683790500.828125
16.05,1683790500.84375
15.56,1683790500.859375
13.54,1683790500.875
9.85,1683790500.890625
4.77,1683790500.90625
-1.11,1683790500.921875
-7.14,1683790500.9375
-12.86,1683790500.953125
-18.10,1683790500.96875
-23.04,1683790500.984375
-28.11,1683790501.0
-33.89,1683790501.015625
-40.86,1683790501.03125
-49.23,1683790501.046875
-58.64,1683790501.0625
-68.03,1683790501.078125
-75.63,1683790501.09375
-79.27,1683790501.109375
-76.99,1683790501.125
-67.69,1683790501.140625
-51.66,1683790501.15625
-30.62,1683790501.171875
-7.32,1683790501.1875
15.22,1683790501.203125
34.51,1683790501.21875
49.00,1683790501.234375
58.11,1683790501.25
61.99,1683790501.265625
61.18,1683790501.28125
56.53,1683790501.296875
49.06,1683790501.3125
40.04,1683790501.328125
30.86,1683790501.34375
22.72,1683790501.359375
16.36,1683790501.375
11.85,1683790501.390625
8.76,1683790501.40625
6.51,1683790501.421875
4.70,1683790501.4375
3.30,1683790501.453125
2.53,1683790501.46875
2.56,1683790501.484375
3.25,1683790501.5
4.01,1683790501.515625
4.03,1683790501.53125
2.56,1683790501.546875
-0.77,1683790501.5625
-5.77,1683790501.578125
-11.89,1683790501.59375
-18.36,1683790501.609375
-24.56,1683790501.625
-30.22,1683790501.640625
-35.45,1683790501.65625
-40.73,1683790501.671875
-46.71,1683790501.6875
-54.03,1683790501.703125
-63.01,1683790501.71875
-73.37,1683790501.734375
-83.96,1683790501.75
-92.83,1683790501.765625
-97.60,1683790501.78125
-96.10,1683790501.796875
-87.11,1683790501.8125
-70.91,1683790501.828125
-49.24,1683790501.84375
-24.84,1683790501.859375
-0.65,1683790501.875
20.92,1683790501.890625
38.33,1683790501.90625
50.95,1683790501.921875
58.80,1683790501.9375
62.23,1683790501.953125
61.84,1683790501.96875
58.43,1683790501.984375
52.99,1683790502.0
46.63,1683790502.015625
40.32,1683790502.03125
34.70,1683790502.046875
29.98,1683790502.0625
26.02,1683790502.078125
22.57,1683790502.09375
19.50,1683790502.109375
16.90,1683790502.125
14.97,1683790502.140625
13.84,1683790502.15625
13.44,1683790502.171875
13.37,1683790502.1875
13.08,1683790502.203125
11.97,1683790502.21875
9.61,1683790502.234375
5.85,1683790502.25
0.81,1683790502.265625
-5.18,1683790502.28125
-11.62,1683790502.296875
-18.15,1683790502.3125
-24.60,1683790502.328125
-31.18,1683790502.34375
-38.41,1683790502.359375
-46.92,1683790502.375
-57.03,1683790502.390625
-68.33,1683790502.40625
-79.48,1683790502.421875
-88.35,1683790502.4375
-92.52,1683790502.453125
-89.99,1683790502.46875
-79.86,1683790502.484375
-62.62,1683790502.5
-40.10,1683790502.515625
-14.97,1683790502.53125
9.87,1683790502.546875
31.89,1683790502.5625
49.35,1683790502.578125
61.44,1683790502.59375
68.21,1683790502.609375
70.35,1683790502.625
68.90,1683790502.640625
64.93,1683790502.65625
59.41,1683790502.671875
53.06,1683790502.6875
46.46,1683790502.703125
40.07,1683790502.71875
34.28,1683790502.734375
29.39,1683790502.75
25.54,1683790502.765625
22.75,1683790502.78125
20.87,1683790502.796875
19.80,1683790502.8125
19.37,1683790502.828125
19.40,1683790502.84375
19.56,1683790502.859375
19.31,1683790502.875
18.06,1683790502.890625
15.27,1683790502.90625
10.77,1683790502.921875
4.81,1683790502.9375
-2.02,1683790502.953125
-9.01,1683790502.96875
-15.70,1683790502.984375
-22.03,1683790503.0
-28.43,1683790503.015625
-35.65,1683790503.03125
-44.42,1683790503.046875
-54.96,1683790503.0625
-66.67,1683790503.078125
-77.88,1683790503.09375
-86.23,1683790503.109375
-89.14,1683790503.125
-84.72,1683790503.140625
-72.42,1683790503.15625
-53.36,1683790503.171875
-29.96,1683790503.1875
-5.31,1683790503.203125
17.71,1683790503.21875
36.99,1683790503.234375
51.43,1683790503.25
60.76,1683790503.265625
65.22,1683790503.28125
65.33,1683790503.296875
61.77,1683790503.3125
55.37,1683790503.328125
47.14,1683790503.34375
38.20,1683790503.359375
29.60,1683790503.375
22.21,1683790503.390625
16.51,1683790503.40625
12.70,1683790503.421875
10.67,1683790503.4375
10.14,1683790503.453125
10.68,1683790503.46875
11.75,1683790503.484375
12.73,1683790503.5
13.01,1683790503.515625
12.11,1683790503.53125
9.84,1683790503.546875
6.33,1683790503.5625
1.89,1683790503.578125
-3.11,1683790503.59375
-8.46,1683790503.609375
-14.16,1683790503.625
-20.42,1683790503.640625
-27.61,1683790503.65625
-36.11,1683790503.671875
-46.12,1683790503.6875
-57.44,1683790503.703125
-69.22,1683790503.71875
-79.80,1683790503.734375
-86.86,1683790503.75
-88.04,1683790503.765625
-81.62,1683790503.78125
-67.28,1683790503.796875
-46.31,1683790503.8125
-21.40,1683790503.828125
4.23,1683790503.84375
27.64,1683790503.859375
46.91,1683790503.875
61.14,1683790503.890625
70.26,1683790503.90625
74.57,1683790503.921875
74.54,1683790503.9375
70.70,1683790503.953125
63.82,1683790503.96875
54.99,1683790503.984375
45.46,1683790504.0
36.43,1683790504.015625
28.78,1683790504.03125
22.91,1683790504.046875
18.78,1683790504.0625
16.15,1683790504.078125
14.67,1683790504.09375
14.00,1683790504.109375
13.78,1683790504.125
13.53,1683790504.140625
12.75,1683790504.15625
11.02,1683790504.171875
8.15,1683790504.1875
4.22,1683790504.203125
-0.48,1683790504.21875
-5.69,1683790504.234375
-11.35,1683790504.25
-17.66,1683790504.265625
-25.00,1683790504.28125
-33.81,1683790504.296875
-44.36,1683790504.3125
-56.60,1683790504.328125
-69.92,1683790504.34375
-82.97,1683790504.359375
-93.69,1683790504.375
-99.58,1683790504.390625
-98.36,1683790504.40625
-88.66,1683790504.421875
-70.72,1683790504.4375
-46.48,1683790504.453125
-19.10,1683790504.46875
7.90,1683790504.484375
31.60,1683790504.5
50.29,1683790504.515625
63.49,1683790504.53125
71.63,1683790504.546875
75.53,1683790504.5625
76.03,1683790504.578125
73.85,1683790504.59375
69.63,1683790504.609375
64.02,1683790504.625
57.66,1683790504.640625
51.14,1683790504.65625
44.92,1683790504.671875
39.39,1683790504.6875
34.82,1683790504.703125
31.40,1683790504.71875
29.12,1683790504.734375
27.75,1683790504.75
26.82,1683790504.765625
25.75,1683790504.78125
24.04,1683790504.796875
21.41,1683790504.8125
17.83,1683790504.828125
13.47,1683790504.84375
8.52,1683790504.859375
3.09,1683790504.875
-2.87,1683790504.890625
-9.55,1683790504.90625
-17.30,1683790504.921875
-26.52,1683790504.9375
-37.52,1683790504.953125
-50.23,1683790504.96875
-63.87,1683790504.984375
-76.81,1683790505.0
-86.65,1683790505.015625
-90.74,1683790505.03125
-87.00,1683790505.046875
-74.57,1683790505.0625
-54.34,1683790505.078125
-28.72,1683790505.09375
-1.10,1683790505.109375
25.01,1683790505.125
46.79,1683790505.140625
62.67,1683790505.15625
72.37,1683790505.171875
76.60,1683790505.1875
76.62,1683790505.203125
73.75,1683790505.21875
69.11,1683790505.234375
63.53,1683790505.25
57.53,1683790505.265625
51.53,1683790505.28125
45.88,1683790505.296875
40.86,1683790505.3125
36.69,1683790505.328125
33.51,1683790505.34375
31.28,1683790505.359375
29.82,1683790505.375
28.77,1683790505.390625
27.65,1683790505.40625
26.05,1683790505.421875
23.67,1683790505.4375
20.45,1683790505.453125
16.54,1683790505.46875
12.13,1683790505.484375
7.34,1683790505.5
2.14,1683790505.515625
-3.64,1683790505.53125
-10.21,1683790505.546875
-17.78,1683790505.5625
-26.63,1683790505.578125
-37.04,1683790505.59375
-49.08,1683790505.609375
-62.31,1683790505.625
-75.34,1683790505.640625
-85.85,1683790505.65625
-91.06,1683790505.671875
-88.63,1683790505.6875
-77.53,1683790505.703125
-58.60,1683790505.71875
-34.37,1683790505.734375
-8.27,1683790505.75
16.31,1683790505.765625
36.85,1683790505.78125
52.11,1683790505.796875
61.99,1683790505.8125
67.15,1683790505.828125
68.61,1683790505.84375
67.29,1683790505.859375
63.99,1683790505.875
59.27,1683790505.890625
53.58,1683790505.90625
47.34,1683790505.921875
41.07,1683790505.9375
35.25,1683790505.953125
30.37,1683790505.96875
26.72,1683790505.984375
24.36,1683790506.0
23.11,1683790506.015625
22.62,1683790506.03125
22.40,1683790506.046875
21.91,1683790506.0625
20.66,1683790506.078125
18.25,1683790506.09375
14.51,1683790506.109375
9.55,1683790506.125
3.68,1683790506.140625
-2.62,1683790506.15625
-8.98,1683790506.171875
-15.28,1683790506.1875
-21.76,1683790506.203125
-28.97,1683790506.21875
-37.51,1683790506.234375
-47.65,1683790506.25
-58.91,1683790506.265625
-69.93,1683790506.28125
-78.61,1683790506.296875
-82.56,1683790506.3125
-79.90,1683790506.328125
-69.82,1683790506.34375
-52.95,1683790506.359375
-31.26,1683790506.375
-7.47,1683790506.390625
15.55,1683790506.40625
35.45,1683790506.421875
50.77,1683790506.4375
60.94,1683790506.453125
66.17,1683790506.46875
67.12,1683790506.484375
64.68,1683790506.5
59.84,1683790506.515625
53.52,1683790506.53125
46.60,1683790506.546875
39.83,1683790506.5625
33.78,1683790506.578125
28.82,1683790506.59375
25.05,1683790506.609375
22.41,1683790506.625
20.71,1683790506.640625
19.74,1683790506.65625
19.23,1683790506.671875
18.91,1683790506.6875
18.41,1683790506.703125
17.29,1683790506.71875
15.16,1683790506.734375
11.71,1683790506.75
6.92,1683790506.765625
1.00,1683790506.78125
-5.60,1683790506.796875
-12.35,1683790506.8125
-18.84,1683790506.828125
-24.92,1683790506.84375
-30.82,1683790506.859375
-37.09,1683790506.875
-44.46,1683790506.890625
-53.49,1683790506.90625
-64.17,1683790506.921875
-75.57,1683790506.9375
-85.82,1683790506.953125
-92.45,1683790506.96875
-93.04,1683790506.984375
-86.08,1683790507.0
-71.49,1683790507.015625
-50.78,1683790507.03125
-26.57,1683790507.046875
-1.85,1683790507.0625
20.78,1683790507.078125
39.65,1683790507.09375
54.08,1683790507.109375
64.08,1683790507.125
70.01,1683790507.140625
72.36,1683790507.15625
71.65,1683790507.171875
68.65,1683790507.1875
64.26,1683790507.203125
59.55,1683790507.21875
55.35,1683790507.234375
52.09,1683790507.25
49.69,1683790507.265625
47.73,1683790507.28125
45.74,1683790507.296875
43.51,1683790507.3125
41.16,1683790507.328125
39.02,1683790507.34375
37.31,1683790507.359375
35.96,1683790507.375
34.54,1683790507.390625
32.37,1683790507.40625
28.79,1683790507.421875
23.33,1683790507.4375
15.85,1683790507.453125
6.59,1683790507.46875
-3.85,1683790507.484375
-14.64,1683790507.5
-24.93,1683790507.515625
-34.09,1683790507.53125
-42.02,1683790507.546875
-49.21,1683790507.5625
-56.58,1683790507.578125
-65.08,1683790507.59375
-75.26,1683790507.609375
-86.80,1683790507.625
-98.44,1683790507.640625
-108.11,1683790507.65625
-113.46,1683790507.671875
-112.47,1683790507.6875
-104.12,1683790507.703125
-88.68,1683790507.71875
-67.75,1683790507.734375
-43.83,1683790507.75
-19.72,1683790507.765625
2.15,1683790507.78125
20.19,1683790507.796875
33.73,1683790507.8125
42.82,1683790507.828125
47.91,1683790507.84375
49.53,1683790507.859375
48.28,1683790507.875
44.85,1683790507.890625
40.14,1683790507.90625
35.19,1683790507.921875
30.94,1683790507.9375
28.00,1683790507.953125
26.37,1683790507.96875
25.58,1683790507.984375
24.91,1683790508.0
23.78,1683790508.015625
22.07,1683790508.03125
20.09,1683790508.046875
18.42,1683790508.0625
17.56,1683790508.078125
17.60,1683790508.09375
18.14,1683790508.109375
18.43,1683790508.125
17.63,1683790508.140625
15.17,1683790508.15625
10.96,1683790508.171875
5.38,1683790508.1875
-0.80,1683790508.203125
-6.77,1683790508.21875
-11.94,1683790508.234375
-16.25,1683790508.25
-20.11,1683790508.265625
-24.36,1683790508.28125
-29.86,1683790508.296875
-37.15,1683790508.3125
-46.18,1683790508.328125
-56.04,1683790508.34375
-65.17,1683790508.359375
-71.56,1683790508.375
-73.31,1683790508.390625
-69.07,1683790508.40625
-58.49,1683790508.421875
-42.36,1683790508.4375
-22.45,1683790508.453125
-1.12,1683790508.46875
19.22,1683790508.484375
36.56,1683790508.5
49.63,1683790508.515625
57.89,1683790508.53125
61.43,1683790508.546875
60.82,1683790508.5625
56.92,1683790508.578125
50.78,1683790508.59375
43.52,1683790508.609375
36.25,1683790508.625
29.87,1683790508.640625
24.96,1683790508.65625
21.65,1683790508.671875
19.72,1683790508.6875
18.70,1683790508.703125
18.15,1683790508.71875
17.78,1683790508.734375
17.50,1683790508.75
17.34,1683790508.765625
17.26,1683790508.78125
17.04,1683790508.796875
16.30,1683790508.8125
14.63,1683790508.828125
11.76,1683790508.84375
7.68,1683790508.859375
2.64,1683790508.875
-3.01,1683790508.890625
-8.86,1683790508.90625
-14.62,1683790508.921875
-20.14,1683790508.9375
-25.46,1683790508.953125
-30.93,1683790508.96875
-37.07,1683790508.984375
-44.44,1683790509.0
-53.26,1683790509.015625
-63.05,1683790509.03125
-72.43,1683790509.046875
-79.32,1683790509.0625
-81.51,1683790509.078125
-77.37,1683790509.09375
-66.54,1683790509.109375
-50.08,1683790509.125
-30.15,1683790509.140625
-9.39,1683790509.15625
9.82,1683790509.171875
25.84,1683790509.1875
37.89,1683790509.203125
45.86,1683790509.21875
50.04,1683790509.234375
50.86,1683790509.25
48.81,1683790509.265625
44.52,1683790509.28125
38.75,1683790509.296875
32.39,1683790509.3125
26.29,1683790509.328125
21.09,1683790509.34375
17.09,1683790509.359375
14.24,1683790509.375
12.25,1683790509.390625
10.74,1683790509.40625
9.49,1683790509.421875
8.45,1683790509.4375
7.76,1683790509.453125
7.55,1683790509.46875
7.77,1683790509.484375
8.08,1683790509.5
7.85,1683790509.515625
6.38,1683790509.53125
3.16,1683790509.546875
-1.90,1683790509.5625
-8.39,1683790509.578125
-15.52,1683790509.59375
-22.46,1683790509.609375
-28.61,1683790509.625
-33.85,1683790509.640625
-38.53,1683790509.65625
-43.28,1683790509.671875
-48.79,1683790509.6875
-55.53,1683790509.703125
-63.64,1683790509.71875
-72.79,1683790509.734375
-82.11,1683790509.75
-90.18,1683790509.765625
-95.13,1683790509.78125
-95.08,1683790509.796875
-88.57,1683790509.8125
-75.23,1683790509.828125
-55.96,1683790509.84375
-32.90,1683790509.859375
-8.84,1683790509.875
13.50,1683790509.890625
32.12,1683790509.90625
46.10,1683790509.921875
55.47,1683790509.9375
60.84,1683790509.953125
63.05,1683790509.96875
62.87,1683790509.984375
60.91,1683790510.0
57.72,1683790510.015625
53.80,1683790510.03125
49.60,1683790510.046875
45.43,1683790510.0625
41.41,1683790510.078125
37.52,1683790510.09375
33.61,1683790510.109375
29.63,1683790510.125
25.60,1683790510.140625
21.74,1683790510.15625
18.32,1683790510.171875
15.56,1683790510.1875
13.52,1683790510.203125
11.99,1683790510.21875
10.42,1683790510.234375
8.13,1683790510.25
4.50,1683790510.265625
-0.83,1683790510.28125
-7.66,1683790510.296875
-15.33,1683790510.3125
-22.89,1683790510.328125
-29.50,1683790510.34375
-34.79,1683790510.359375
-38.95,1683790510.375
-42.63,1683790510.390625
-46.64,1683790510.40625
-51.62,1683790510.421875
-57.85,1683790510.4375
-65.17,1683790510.453125
-73.02,1683790510.46875
-80.41,1683790510.484375
-85.95,1683790510.5
-88.08,1683790510.515625
-85.28,1683790510.53125
-76.61,1683790510.546875
-62.05,1683790510.5625
-42.63,1683790510.578125
-20.17,1683790510.59375
3.16,1683790510.609375
25.41,1683790510.625
45.08,1683790510.640625
61.21,1683790510.65625
73.26,1683790510.671875
81.02,1683790510.6875
84.58,1683790510.703125
84.32,1683790510.71875
80.94,1683790510.734375
75.37,1683790510.75
68.71,1683790510.765625
62.05,1683790510.78125
56.35,1683790510.796875
52.24,1683790510.8125
49.93,1683790510.828125
49.12,1683790510.84375
49.00,1683790510.859375
48.49,1683790510.875
46.41,1683790510.890625
41.82,1683790510.90625
34.29,1683790510.921875
23.91,1683790510.9375
11.27,1683790510.953125
-2.74,1683790510.96875
-17.16,1683790510.984375
-31.05,1683790511.0
-43.68,1683790511.015625
-54.55,1683790511.03125
-63.46,1683790511.046875
-70.49,1683790511.0625
-76.10,1683790511.078125
-81.01,1683790511.09375
-86.21,1683790511.109375
-92.64,1683790511.125
-100.82,1683790511.140625
-110.46,1683790511.15625
-120.22,1683790511.171875
-127.73,1683790511.1875
-130.19,1683790511.203125
-125.15,1683790511.21875
-111.31,1683790511.234375
-89.06,1683790511.25
-60.52,1683790511.265625
-28.99,1683790511.28125
1.83,1683790511.296875
28.77,1683790511.3125
49.83,1683790511.328125
64.39,1683790511.34375
72.91,1683790511.359375
76.51,1683790511.375
76.40,1683790511.390625
73.54,1683790511.40625
68.69,1683790511.421875
62.46,1683790511.4375
55.48,1683790511.453125
48.50,1683790511.46875
42.20,1683790511.484375
37.10,1683790511.5
33.44,1683790511.515625
31.22,1683790511.53125
30.33,1683790511.546875
30.63,1683790511.5625
31.99,1683790511.578125
34.07,1683790511.59375
36.28,1683790511.609375
37.76,1683790511.625
37.59,1683790511.640625
35.14,1683790511.65625
30.32,1683790511.671875
23.71,1683790511.6875
16.28,1683790511.703125
9.15,1683790511.71875
3.10,1683790511.734375
-1.63,1683790511.75
-5.42,1683790511.765625
-9.15,1683790511.78125
-13.89,1683790511.796875
-20.53,1683790511.8125
-29.46,1683790511.828125
-40.19,1683790511.84375
-51.43,1683790511.859375
-61.20,1683790511.875
-67.32,1683790511.890625
-67.97,1683790511.90625
-62.24,1683790511.921875
-50.34,1683790511.9375
-33.59,1683790511.953125
-14.03,1683790511.96875
6.09,1683790511.984375
24.74,1683790512.0
40.44,1683790512.015625
52.42,1683790512.03125
60.49,1683790512.046875
64.84,1683790512.0625
65.95,1683790512.078125
64.34,1683790512.09375
60.63,1683790512.109375
55.48,1683790512.125
49.66,1683790512.140625
43.93,1683790512.15625
39.01,1683790512.171875
35.41,1683790512.1875
33.27,1683790512.203125
32.46,1683790512.21875
32.52,1683790512.234375
32.94,1683790512.25
33.24,1683790512.265625
33.16,1683790512.28125
32.58,1683790512.296875
31.40,1683790512.3125
29.40,1683790512.328125
26.26,1683790512.34375
21.65,1683790512.359375
15.48,1683790512.375
8.05,1683790512.390625
0.06,1683790512.40625
-7.66,1683790512.421875
-14.48,1683790512.4375
-20.22,1683790512.453125
-25.23,1683790512.46875
-30.24,1683790512.484375
-36.05,1683790512.5
-43.31,1683790512.515625
-52.28,1683790512.53125
-62.69,1683790512.546875
-73.58,1683790512.5625
-83.31,1683790512.578125
-89.76,1683790512.59375
-90.85,1683790512.609375
-85.14,1683790512.625
-72.42,1683790512.640625
-53.90,1683790512.65625
-31.87,1683790512.671875
-9.08,1683790512.6875
11.98,1683790512.703125
29.60,1683790512.71875
42.90,1683790512.734375
51.68,1683790512.75
56.15,1683790512.765625
56.77,1683790512.78125
54.16,1683790512.796875
49.16,1683790512.8125
42.68,1683790512.828125
35.70,1683790512.84375
28.98,1683790512.859375
23.06,1683790512.875
18.18,1683790512.890625
14.36,1683790512.90625
11.52,1683790512.921875
9.55,1683790512.9375
8.38,1683790512.953125
7.91,1683790512.96875
7.96,1683790512.984375
8.23,1683790513.0
8.24,1683790513.015625
7.46,1683790513.03125
5.45,1683790513.046875
2.00,1683790513.0625
-2.70,1683790513.078125
-8.12,1683790513.09375
-13.54,1683790513.109375
-18.31,1683790513.125
-22.10,1683790513.140625
-24.99,1683790513.15625
-27.46,1683790513.171875
-30.21,1683790513.1875
-33.89,1683790513.203125
-38.84,1683790513.21875
-44.88,1683790513.234375
-51.20,1683790513.25
-56.38,1683790513.265625
-58.65,1683790513.28125
-56.34,1683790513.296875
-48.35,1683790513.3125
-34.52,1683790513.328125
-15.76,1683790513.34375
6.06,1683790513.359375
28.52,1683790513.375
49.12,1683790513.390625
65.80,1683790513.40625
77.17,1683790513.421875
82.74,1683790513.4375
82.84,1683790513.453125
78.43,1683790513.46875
70.87,1683790513.484375
61.68,1683790513.5
52.23,1683790513.515625
43.55,1683790513.53125
36.24,1683790513.546875
30.43,1683790513.5625
25.92,1683790513.578125
22.38,1683790513.59375
19.51,1683790513.609375
17.20,1683790513.625
15.50,1683790513.640625
14.44,1683790513.65625
13.81,1683790513.671875
13.06,1683790513.6875
11.19,1683790513.703125
7.13,1683790513.71875
0.10,1683790513.734375
-9.94,1683790513.75
-22.04,1683790513.765625
-34.17,1683790513.78125
-43.74,1683790513.796875
-48.40,1683790513.8125
-47.08,1683790513.828125
-40.70,1683790513.84375
-32.31,1683790513.859375
-26.31,1683790513.875
-26.98,1683790513.890625
-36.96,1683790513.90625
-56.20,1683790513.921875
-81.88,1683790513.9375
-109.30,1683790513.953125
-133.29,1683790513.96875
-149.65,1683790513.984375
-156.02,1683790514.0
-152.16,1683790514.015625
-139.63,1683790514.03125
-121.05,1683790514.046875
-99.42,1683790514.0625
-77.39,1683790514.078125
-56.81,1683790514.09375
-38.41,1683790514.109375
-21.87,1683790514.125
-6.08,1683790514.140625
10.26,1683790514.15625
28.15,1683790514.171875
47.84,1683790514.1875
68.65,1683790514.203125
89.15,1683790514.21875
107.55,1683790514.234375
122.23,1683790514.25
132.07,1683790514.265625
136.71,1683790514.28125
136.51,1683790514.296875
132.44,1683790514.3125
125.80,1683790514.328125
118.02,1683790514.34375
110.39,1683790514.359375
103.84,1683790514.375
98.65,1683790514.390625
94.41,1683790514.40625
90.08,1683790514.421875
84.43,1683790514.4375
76.44,1683790514.453125
65.79,1683790514.46875
52.92,1683790514.484375
38.89,1683790514.5
24.88,1683790514.515625
11.85,1683790514.53125
0.18,1683790514.546875
-10.25,1683790514.5625
-19.97,1683790514.578125
-29.67,1683790514.59375
-40.00,1683790514.609375
-51.48,1683790514.625
-64.13,1683790514.640625
-77.35,1683790514.65625
-89.67,1683790514.671875
-98.94,1683790514.6875
-102.80,1683790514.703125
-99.41,1683790514.71875
-88.17,1683790514.734375
-70.06,1683790514.75
-47.38,1683790514.765625
-23.07,1683790514.78125
0.10,1683790514.796875
20.12,1683790514.8125
35.95,1683790514.828125
47.32,1683790514.84375
54.41,1683790514.859375
57.61,1683790514.875
57.40,1683790514.890625
54.41,1683790514.90625
49.39,1683790514.921875
43.26,1683790514.9375
36.90,1683790514.953125
31.08,1683790514.96875
26.29,1683790514.984375
22.73,1683790515.0
20.38,1683790515.015625
19.11,1683790515.03125
18.77,1683790515.046875
19.33,1683790515.0625
20.82,1683790515.078125
23.18,1683790515.09375
26.17,1683790515.109375
29.23,1683790515.125
31.59,1683790515.140625
32.43,1683790515.15625
31.19,1683790515.171875
27.87,1683790515.1875
22.96,1683790515.203125
17.35,1683790515.21875
11.91,1683790515.234375
7.18,1683790515.25
3.17,1683790515.265625
-0.60,1683790515.28125
-4.90,1683790515.296875
-10.58,1683790515.3125
-18.15,1683790515.328125
-27.66,1683790515.34375
-38.47,1683790515.359375
-49.17,1683790515.375
-57.86,1683790515.390625
-62.40,1683790515.40625
-61.05,1683790515.421875
-52.99,1683790515.4375
-38.67,1683790515.453125
-19.74,1683790515.46875
1.36,1683790515.484375
22.02,1683790515.5
40.00,1683790515.515625
53.84,1683790515.53125
62.88,1683790515.546875
67.12,1683790515.5625
67.09,1683790515.578125
63.59,1683790515.59375
57.59,1683790515.609375
50.07,1683790515.625
41.87,1683790515.640625
33.56,1683790515.65625
25.53,1683790515.671875
18.03,1683790515.6875
11.30,1683790515.703125
5.64,1683790515.71875
1.31,1683790515.734375
-1.53,1683790515.75
-3.03,1683790515.765625
-3.51,1683790515.78125
-3.53,1683790515.796875
-3.70,1683790515.8125
-4.56,1683790515.828125
-6.56,1683790515.84375
-10.00,1683790515.859375
-14.92,1683790515.875
-21.11,1683790515.890625
-28.12,1683790515.90625
-35.28,1683790515.921875
-42.00,1683790515.9375
-47.98,1683790515.953125
-53.33,1683790515.96875
-58.64,1683790515.984375
-64.73,1683790516.0
-72.31,1683790516.015625
-81.65,1683790516.03125
-92.31,1683790516.046875
-103.05,1683790516.0625
-112.11,1683790516.078125
-117.52,1683790516.09375
-117.60,1683790516.109375
-111.40,1683790516.125
-99.03,1683790516.140625
-81.61,1683790516.15625
-61.11,1683790516.171875
-39.78,1683790516.1875
-19.75,1683790516.203125
-2.61,1683790516.21875
10.68,1683790516.234375
19.73,1683790516.25
24.52,1683790516.265625
25.36,1683790516.28125
22.92,1683790516.296875
18.14,1683790516.3125
12.24,1683790516.328125
6.43,1683790516.34375
1.52,1683790516.359375
-2.22,1683790516.375
-5.04,1683790516.390625
-7.35,1683790516.40625
-9.41,1683790516.421875
-11.10,1683790516.4375
-12.12,1683790516.453125
-12.30,1683790516.46875
-11.82,1683790516.484375
-11.31,1683790516.5
-11.56,1683790516.515625
-13.12,1683790516.53125
-16.12,1683790516.546875
-20.26,1683790516.5625
-25.13,1683790516.578125
-30.40,1683790516.59375
-36.01,1683790516.609375
-42.05,1683790516.625
-48.75,1683790516.640625
-56.40,1683790516.65625
-65.36,1683790516.671875
-75.96,1683790516.6875
-88.26,1683790516.703125
-101.62,1683790516.71875
-114.47,1683790516.734375
-124.53,1683790516.75
-129.36,1683790516.765625
-127.21,1683790516.78125
-117.71,1683790516.796875
-102.09,1683790516.8125
-82.81,1683790516.828125
-62.80,1683790516.84375
-44.56,1683790516.859375
-29.66,1683790516.875
-18.56,1683790516.890625
-10.91,1683790516.90625
-6.01,1683790516.921875
-3.40,1683790516.9375
-2.91,1683790516.953125
-4.54,1683790516.96875
-7.86,1683790516.984375
-11.65,1683790517.0
-13.90,1683790517.015625
-12.34,1683790517.03125
-5.26,1683790517.046875
7.89,1683790517.0625
26.44,1683790517.078125
48.94,1683790517.09375
73.76,1683790517.109375
99.47,1683790517.125
124.85,1683790517.140625
148.66,1683790517.15625
169.61,1683790517.171875
186.62,1683790517.1875
199.08,1683790517.203125
207.01,1683790517.21875
210.81,1683790517.234375
210.69,1683790517.25
206.32,1683790517.265625
196.98,1683790517.28125
182.11,1683790517.296875
162.06,1683790517.3125
138.38,1683790517.328125
113.58,1683790517.34375
90.40,1683790517.359375
71.01,1683790517.375
56.56,1683790517.390625
47.09,1683790517.40625
41.88,1683790517.421875
39.83,1683790517.4375
39.83,1683790517.453125
40.84,1683790517.46875
41.91,1683790517.484375
42.16,1683790517.5
40.80,1683790517.515625
37.39,1683790517.53125
31.87,1683790517.546875
24.66,1683790517.5625
16.41,1683790517.578125
7.82,1683790517.59375
-0.53,1683790517.609375
-8.19,1683790517.625
-14.75,1683790517.640625
-19.78,1683790517.65625
-22.89,1683790517.671875
-23.95,1683790517.6875
-23.19,1683790517.703125
-21.17,1683790517.71875
-18.60,1683790517.734375
-16.15,1683790517.75
-14.27,1683790517.765625
-13.28,1683790517.78125
-13.44,1683790517.796875
-15.02,1683790517.8125
-18.14,1683790517.828125
-22.64,1683790517.84375
-28.10,1683790517.859375
-33.93,1683790517.875
-39.75,1683790517.890625
-45.57,1683790517.90625
-51.87,1683790517.921875
-59.36,1683790517.9375
-68.56,1683790517.953125
-79.41,1683790517.96875
-91.02,1683790517.984375
-101.70,1683790518.0
-109.28,1683790518.015625
-111.64,1683790518.03125
-107.42,1683790518.046875
-96.44,1683790518.0625
-80.01,1683790518.078125
-60.52,1683790518.09375
-40.80,1683790518.109375
-23.27,1683790518.125
-9.32,1683790518.140625
0.87,1683790518.15625
8.05,1683790518.171875
13.34,1683790518.1875
17.62,1683790518.203125
21.26,1683790518.21875
24.09,1683790518.234375
25.66,1683790518.25
25.55,1683790518.265625
23.61,1683790518.28125
20.03,1683790518.296875
15.27,1683790518.3125
9.94,1683790518.328125
4.63,1683790518.34375
-0.15,1683790518.359375
-4.02,1683790518.375
-6.81,1683790518.390625
-8.57,1683790518.40625
-9.66,1683790518.421875
-10.70,1683790518.4375
-12.54,1683790518.453125
-15.93,1683790518.46875
-21.36,1683790518.484375
-28.81,1683790518.5
-37.69,1683790518.515625
-47.03,1683790518.53125
-55.83,1683790518.546875
-63.42,1683790518.5625
-69.75,1683790518.578125
-75.42,1683790518.59375
-81.41,1683790518.609375
-88.60,1683790518.625
-97.21,1683790518.640625
-106.36,1683790518.65625
-114.13,1683790518.671875
-118.01,1683790518.6875
-115.71,1683790518.703125
-106.00,1683790518.71875
-89.24,1683790518.734375
-67.30,1683790518.75
-42.94,1683790518.765625
-18.95,1683790518.78125
2.57,1683790518.796875
20.46,1683790518.8125
34.31,1683790518.828125
44.09,1683790518.84375
49.86,1683790518.859375
51.81,1683790518.875
50.36,1683790518.890625
46.46,1683790518.90625
41.45,1683790518.921875
36.81,1683790518.9375
33.71,1683790518.953125
32.76,1683790518.96875
33.88,1683790518.984375
36.47,1683790519.0
39.63,1683790519.015625
42.52,1683790519.03125
44.51,1683790519.046875
45.36,1683790519.0625
45.22,1683790519.078125
44.48,1683790519.09375
43.56,1683790519.109375
42.66,1683790519.125
41.57,1683790519.140625
39.84,1683790519.15625
36.90,1683790519.171875
32.46,1683790519.1875
26.62,1683790519.203125
19.93,1683790519.21875
13.08,1683790519.234375
6.65,1683790519.25
0.85,1683790519.265625
-4.51,1683790519.28125
-9.93,1683790519.296875
-16.07,1683790519.3125
-23.49,1683790519.328125
-32.48,1683790519.34375
-42.92,1683790519.359375
-54.06,1683790519.375
-64.41,1683790519.390625
-71.87,1683790519.40625
-74.06,1683790519.421875
-68.98,1683790519.4375
-55.65,1683790519.453125
-34.60,1683790519.46875
-7.91,1683790519.484375
21.27,1683790519.5
49.50,1683790519.515625
73.97,1683790519.53125
92.97,1683790519.546875
106.00,1683790519.5625
113.49,1683790519.578125
116.37,1683790519.59375
115.77,1683790519.609375
112.82,1683790519.625
108.66,1683790519.640625
104.35,1683790519.65625
100.78,1683790519.671875
98.54,1683790519.6875
97.84,1683790519.703125
98.53,1683790519.71875
100.28,1683790519.734375
102.71,1683790519.75
105.52,1683790519.765625
108.53,1683790519.78125
111.59,1683790519.796875
114.48,1683790519.8125
116.84,1683790519.828125
118.24,1683790519.84375
118.24,1683790519.859375
116.56,1683790519.875
113.25,1683790519.890625
108.67,1683790519.90625
103.37,1683790519.921875
97.80,1683790519.9375
92.07,1683790519.953125
85.85,1683790519.96875
78.50,1683790519.984375
69.46,1683790520.0
58.55,1683790520.015625
46.12,1683790520.03125
32.89,1683790520.046875
19.54,1683790520.0625
6.42,1683790520.078125
-6.61,1683790520.09375
-20.13,1683790520.109375
-34.92,1683790520.125
-51.64,1683790520.140625
-70.57,1683790520.15625
-91.19,1683790520.171875
-111.95,1683790520.1875
-130.33,1683790520.203125
-143.10,1683790520.21875
-147.21,1683790520.234375
-140.82,1683790520.25
-124.07,1683790520.265625
-99.31,1683790520.28125
-70.53,1683790520.296875
-42.19,1683790520.3125
-17.96,1683790520.328125
0.09,1683790520.34375
11.50,1683790520.359375
16.95,1683790520.375
17.55,1683790520.390625
14.40,1683790520.40625
8.64,1683790520.421875
1.62,1683790520.4375
-4.91,1683790520.453125
-9.14,1683790520.46875
-9.65,1683790520.484375
-6.07,1683790520.5
0.79,1683790520.515625
9.23,1683790520.53125
17.32,1683790520.546875
23.63,1683790520.5625
27.56,1683790520.578125
29.30,1683790520.59375
29.31,1683790520.609375
27.98,1683790520.625
25.49,1683790520.640625
21.88,1683790520.65625
17.38,1683790520.671875
12.50,1683790520.6875
7.86,1683790520.703125
3.87,1683790520.71875
0.39,1683790520.734375
-3.33,1683790520.75
-8.36,1683790520.765625
-15.56,1683790520.78125
-25.24,1683790520.796875
-36.89,1683790520.8125
-49.41,1683790520.828125
-61.46,1683790520.84375
-72.08,1683790520.859375
-80.93,1683790520.875
-88.40,1683790520.890625
-95.37,1683790520.90625
-102.86,1683790520.921875
-111.56,1683790520.9375
-121.62,1683790520.953125
-132.40,1683790520.96875
-142.57,1683790520.984375
-150.23,1683790521.0
-153.17,1683790521.015625
-149.39,1683790521.03125
-137.61,1683790521.046875
-117.78,1683790521.0625
-91.29,1683790521.078125
-60.80,1683790521.09375
-29.69,1683790521.109375
-1.21,1683790521.125
22.22,1683790521.140625
39.43,1683790521.15625
50.48,1683790521.171875
56.30,1683790521.1875
58.24,1683790521.203125
57.67,1683790521.21875
55.68,1683790521.234375
53.04,1683790521.25
50.25,1683790521.265625
47.62,1683790521.28125
45.36,1683790521.296875
43.59,1683790521.3125
42.37,1683790521.328125
41.66,1683790521.34375
41.42,1683790521.359375
41.61,1683790521.375
42.24,1683790521.390625
43.31,1683790521.40625
44.69,1683790521.421875
46.02,1683790521.4375
46.70,1683790521.453125
46.07,1683790521.46875
43.59,1683790521.484375
39.13,1683790521.5
33.00,1683790521.515625
25.77,1683790521.53125
18.02,1683790521.546875
10.03,1683790521.5625
1.76,1683790521.578125
-7.08,1683790521.59375
-16.67,1683790521.609375
-26.98,1683790521.625
-37.57,1683790521.640625
-47.77,1683790521.65625
-56.89,1683790521.671875
-64.51,1683790521.6875
-70.70,1683790521.703125
-76.03,1683790521.71875
-81.56,1683790521.734375
-88.40,1683790521.75
-97.34,1683790521.765625
-108.25,1683790521.78125
-119.82,1683790521.796875
-129.68,1683790521.8125
-134.93,1683790521.828125
-133.11,1683790521.84375
-122.92,1683790521.859375
-104.81,1683790521.875
-80.72,1683790521.890625
-53.48,1683790521.90625
-26.03,1683790521.921875
-0.73,1683790521.9375
20.85,1683790521.953125
37.93,1683790521.96875
50.27,1683790521.984375
57.97,1683790522.0
61.38,1683790522.015625
61.13,1683790522.03125
58.11,1683790522.046875
53.39,1683790522.0625
48.14,1683790522.078125
43.43,1683790522.09375
40.03,1683790522.109375
38.34,1683790522.125
38.28,1683790522.140625
39.42,1683790522.15625
41.06,1683790522.171875
42.57,1683790522.1875
43.51,1683790522.203125
43.72,1683790522.21875
43.31,1683790522.234375
42.42,1683790522.25
41.16,1683790522.265625
39.46,1683790522.28125
37.05,1683790522.296875
33.62,1683790522.3125
28.90,1683790522.328125
22.77,1683790522.34375
15.37,1683790522.359375
7.05,1683790522.375
-1.64,1683790522.390625
-10.14,1683790522.40625
-17.93,1683790522.421875
-24.75,1683790522.4375
-30.65,1683790522.453125
-36.04,1683790522.46875
-41.63,1683790522.484375
-48.25,1683790522.5
-56.51,1683790522.515625
-66.43,1683790522.53125
-77.22,1683790522.546875
-87.21,1683790522.5625
-94.10,1683790522.578125
-95.57,1683790522.59375
-89.98,1683790522.609375
-76.89,1683790522.625
-57.31,1683790522.640625
-33.44,1683790522.65625
-8.14,1683790522.671875
15.82,1683790522.6875
36.25,1683790522.703125
51.86,1683790522.71875
62.12,1683790522.734375
67.07,1683790522.75
67.12,1683790522.765625
62.97,1683790522.78125
55.62,1683790522.796875
46.43,1683790522.8125
36.93,1683790522.828125
28.53,1683790522.84375
22.17,1683790522.859375
18.08,1683790522.875
15.91,1683790522.890625
14.97,1683790522.90625
14.76,1683790522.921875
15.08,1683790522.9375
16.07,1683790522.953125
17.86,1683790522.96875
20.29,1683790522.984375
22.77,1683790523.0
24.30,1683790523.015625
23.85,1683790523.03125
20.72,1683790523.046875
14.80,1683790523.0625
6.64,1683790523.078125
-2.73,1683790523.09375
-12.19,1683790523.109375
-20.88,1683790523.125
-28.49,1683790523.140625
-35.35,1683790523.15625
-42.33,1683790523.171875
-50.47,1683790523.1875
-60.67,1683790523.203125
-73.28,1683790523.21875
-87.82,1683790523.234375
-102.83,1683790523.25
-116.02,1683790523.265625
-124.58,1683790523.28125
-125.95,1683790523.296875
-118.49,1683790523.3125
-102.04,1683790523.328125
-78.15,1683790523.34375
-49.64,1683790523.359375
-19.93,1683790523.375
7.81,1683790523.390625
31.27,1683790523.40625
49.29,1683790523.421875
61.71,1683790523.4375
69.02,1683790523.453125
72.09,1683790523.46875
71.81,1683790523.484375
69.07,1683790523.5
64.64,1683790523.515625
59.30,1683790523.53125
53.77,1683790523.546875
48.72,1683790523.5625
44.65,1683790523.578125
41.77,1683790523.59375
39.96,1683790523.609375
38.88,1683790523.625
38.12,1683790523.640625
37.48,1683790523.65625
36.99,1683790523.671875
36.82,1683790523.6875
37.04,1683790523.703125
37.36,1683790523.71875
37.08,1683790523.734375
35.22,1683790523.75
30.90,1683790523.765625
23.75,1683790523.78125
14.08,1683790523.796875
2.79,1683790523.8125
-8.93,1683790523.828125
-20.01,1683790523.84375
-29.90,1683790523.859375
-38.65,1683790523.875
-46.90,1683790523.890625
-55.63,1683790523.90625
-65.81,1683790523.921875
-78.02,1683790523.9375
-91.97,1683790523.953125
-106.34,1683790523.96875
-118.71,1683790523.984375
-126.07,1683790524.0
-125.59,1683790524.015625
-115.53,1683790524.03125
-95.90,1683790524.046875
-68.55,1683790524.0625
-36.70,1683790524.078125
-4.07,1683790524.09375
26.01,1683790524.109375
51.24,1683790524.125
70.48,1683790524.140625
83.59,1683790524.15625
91.04,1683790524.171875
93.62,1683790524.1875
92.25,1683790524.203125
87.96,1683790524.21875
81.88,1683790524.234375
75.14,1683790524.25
68.74,1683790524.265625
63.41,1683790524.28125
59.44,1683790524.296875
56.65,1683790524.3125
54.56,1683790524.328125
52.62,1683790524.34375
50.46,1683790524.359375
48.10,1683790524.375
45.86,1683790524.390625
44.16,1683790524.40625
43.15,1683790524.421875
42.55,1683790524.4375
41.57,1683790524.453125
39.18,1683790524.46875
34.55,1683790524.484375
27.40,1683790524.5
18.19,1683790524.515625
7.85,1683790524.53125
-2.55,1683790524.546875
-12.33,1683790524.5625
-21.40,1683790524.578125
-30.34,1683790524.59375
-40.03,1683790524.609375
-51.33,1683790524.625
-64.71,1683790524.640625
-79.93,1683790524.65625
-95.84,1683790524.671875
-110.41,1683790524.6875
-120.92,1683790524.703125
-124.51,1683790524.71875
-119.02,1683790524.734375
-103.69,1683790524.75
-79.60,1683790524.765625
-49.47,1683790524.78125
-16.94,1683790524.796875
14.29,1683790524.8125
41.31,1683790524.828125
62.36,1683790524.84375
76.78,1683790524.859375
84.71,1683790524.875
86.78,1683790524.890625
83.96,1683790524.90625
77.48,1683790524.921875
68.76,1683790524.9375
59.34,1683790524.953125
50.56,1683790524.96875
43.35,1683790524.984375
38.08,1683790525.0
34.57,1683790525.015625
32.36,1683790525.03125
30.99,1683790525.046875
30.19,1683790525.0625
29.94,1683790525.078125
30.28,1683790525.09375
31.07,1683790525.109375
31.84,1683790525.125
31.76,1683790525.140625
29.96,1683790525.15625
25.81,1683790525.171875
19.24,1683790525.1875
10.70,1683790525.203125
1.02,1683790525.21875
-8.97,1683790525.234375
-18.80,1683790525.25
-28.47,1683790525.265625
-38.55,1683790525.28125
-49.88,1683790525.296875
-63.31,1683790525.3125
-79.15,1683790525.328125
-96.74,1683790525.34375
-114.23,1683790525.359375
-128.72,1683790525.375
-136.86,1683790525.390625
-135.83,1683790525.40625
-124.27,1683790525.421875
-102.78,1683790525.4375
-73.83,1683790525.453125
-41.04,1683790525.46875
-8.19,1683790525.484375
21.63,1683790525.5
46.48,1683790525.515625
65.56,1683790525.53125
78.85,1683790525.546875
86.75,1683790525.5625
89.79,1683790525.578125
88.66,1683790525.59375
84.28,1683790525.609375
77.79,1683790525.625
70.51,1683790525.640625
63.68,1683790525.65625
58.07,1683790525.671875
53.93,1683790525.6875
50.95,1683790525.703125
48.60,1683790525.71875
46.48,1683790525.734375
44.56,1683790525.75
43.17,1683790525.765625
42.63,1683790525.78125
42.88,1683790525.796875
43.24,1683790525.8125
42.56,1683790525.828125
39.64,1683790525.84375
33.76,1683790525.859375
25.04,1683790525.875
14.35,1683790525.890625
3.04,1683790525.90625
-7.72,1683790525.921875
-17.31,1683790525.9375
-25.89,1683790525.953125
-34.32,1683790525.96875
-43.82,1683790525.984375
-55.55,1683790526.0
-70.18,1683790526.015625
-87.37,1683790526.03125
-105.52,1683790526.046875
-121.78,1683790526.0625
-132.59,1683790526.078125
-134.58,1683790526.09375
-125.69,1683790526.109375
-105.93,1683790526.125
-77.52,1683790526.140625
-44.26,1683790526.15625
-10.40,1683790526.171875
20.50,1683790526.1875
46.15,1683790526.203125
65.64,1683790526.21875
79.02,1683790526.234375
86.74,1683790526.25
89.45,1683790526.265625
87.98,1683790526.28125
83.38,1683790526.296875
76.96,1683790526.3125
70.07,1683790526.328125
63.80,1683790526.34375
58.68,1683790526.359375
54.71,1683790526.375
51.47,1683790526.390625
48.47,1683790526.40625
45.51,1683790526.421875
42.70,1683790526.4375
40.46,1683790526.453125
39.26,1683790526.46875
39.24,1683790526.484375
40.06,1683790526.5
40.79,1683790526.515625
40.19,1683790526.53125
37.15,1683790526.546875
31.13,1683790526.5625
22.40,1683790526.578125
11.93,1683790526.59375
0.98,1683790526.609375
-9.40,1683790526.625
-18.76,1683790526.640625
-27.32,1683790526.65625
-35.86,1683790526.671875
-45.38,1683790526.6875
-56.83,1683790526.703125
-70.71,1683790526.71875
-86.68,1683790526.734375
-103.31,1683790526.75
-117.97,1683790526.765625
-127.35,1683790526.78125
-128.24,1683790526.796875
-118.71,1683790526.8125
-98.84,1683790526.828125
-70.90,1683790526.84375
-38.67,1683790526.859375
-6.32,1683790526.875
22.70,1683790526.890625
46.26,1683790526.90625
63.52,1683790526.921875
74.56,1683790526.9375
79.91,1683790526.953125
80.27,1683790526.96875
76.59,1683790526.984375
70.05,1683790527.0
62.09,1683790527.015625
54.11,1683790527.03125
47.16,1683790527.046875
41.71,1683790527.0625
37.68,1683790527.078125
34.70,1683790527.09375
32.37,1683790527.109375
30.52,1683790527.125
29.26,1683790527.140625
28.71,1683790527.15625
28.90,1683790527.171875
29.44,1683790527.1875
29.66,1683790527.203125
28.66,1683790527.21875
25.65,1683790527.234375
20.20,1683790527.25
12.53,1683790527.265625
3.34,1683790527.28125
-6.28,1683790527.296875
-15.36,1683790527.3125
-23.34,1683790527.328125
-30.38,1683790527.34375
-37.29,1683790527.359375
-45.26,1683790527.375
-55.44,1683790527.390625
-68.37,1683790527.40625
-83.54,1683790527.421875
-99.14,1683790527.4375
-112.24,1683790527.453125
-119.45,1683790527.46875
-117.83,1683790527.484375
-105.90,1683790527.5
-84.21,1683790527.515625
-55.28,1683790527.53125
-22.93,1683790527.546875
8.84,1683790527.5625
36.84,1683790527.578125
59.24,1683790527.59375
75.52,1683790527.609375
86.06,1683790527.625
91.55,1683790527.640625
92.68,1683790527.65625
90.10,1683790527.671875
84.63,1683790527.6875
77.42,1683790527.703125
69.83,1683790527.71875
63.15,1683790527.734375
58.22,1683790527.75
55.10,1683790527.765625
53.19,1683790527.78125
51.58,1683790527.796875
49.57,1683790527.8125
47.06,1683790527.828125
44.51,1683790527.84375
42.64,1683790527.859375
41.89,1683790527.875
42.01,1683790527.890625
42.07,1683790527.90625
40.75,1683790527.921875
36.88,1683790527.9375
29.96,1683790527.953125
20.31,1683790527.96875
8.99,1683790527.984375
-2.59,1683790528.0
-13.24,1683790528.015625
-22.29,1683790528.03125
-29.88,1683790528.046875
-36.78,1683790528.0625
-44.20,1683790528.078125
-53.36,1683790528.09375
-65.12,1683790528.109375
