1686641079.00,timestamp
-0.00,1686641079.0
-0.00,1686641079.015625
-0.00,1686641079.03125
-0.00,1686641079.046875
-0.00,1686641079.0625
-0.00,1686641079.078125
-0.00,1686641079.09375
-0.00,1686641079.109375
-0.00,1686641079.125
-0.00,1686641079.140625
0.00,1686641079.15625
0.01,1686641079.171875
0.01,1686641079.1875
-0.00,1686641079.203125
-0.03,1686641079.21875
-0.05,1686641079.234375
-0.05,1686641079.25
0.00,1686641079.265625
0.13,1686641079.28125
0.36,1686641079.296875
0.66,1686641079.3125
1.01,1686641079.328125
1.37,1686641079.34375
1.72,1686641079.359375
2.06,1686641079.375
2.40,1686641079.390625
2.79,1686641079.40625
3.24,1686641079.421875
3.80,1686641079.4375
4.42,1686641079.453125
5.06,1686641079.46875
5.66,1686641079.484375
6.20,1686641079.5
6.68,1686641079.515625
7.15,1686641079.53125
7.68,1686641079.546875
8.31,1686641079.5625
9.14,1686641079.578125
10.09,1686641079.59375
11.04,1686641079.609375
11.88,1686641079.625
12.56,1686641079.640625
13.14,1686641079.65625
13.76,1686641079.671875
14.65,1686641079.6875
15.96,1686641079.703125
17.91,1686641079.71875
20.32,1686641079.734375
22.90,1686641079.75
25.38,1686641079.765625
27.58,1686641079.78125
29.57,1686641079.796875
31.68,1686641079.8125
34.32,1686641079.828125
37.81,1686641079.84375
42.54,1686641079.859375
48.15,1686641079.875
54.10,1686641079.890625
59.83,1686641079.90625
64.97,1686641079.921875
69.58,1686641079.9375
74.14,1686641079.953125
79.34,1686641079.96875
85.71,1686641079.984375
93.76,1686641080.0
103.00,1686641080.015625
112.62,1686641080.03125
121.73,1686641080.046875
129.77,1686641080.0625
136.75,1686641080.078125
143.30,1686641080.09375
150.75,1686641080.109375
157.77,1686641080.125
166.64,1686641080.140625
177.95,1686641080.15625
191.79,1686641080.171875
206.97,1686641080.1875
220.57,1686641080.203125
228.25,1686641080.21875
225.36,1686641080.234375
208.53,1686641080.25
176.87,1686641080.265625
132.76,1686641080.28125
80.05,1686641080.296875
23.07,1686641080.3125
-34.94,1686641080.328125
-92.44,1686641080.34375
-149.16,1686641080.359375
-205.23,1686641080.375
-260.37,1686641080.390625
-313.74,1686641080.40625
-363.87,1686641080.421875
-409.83,1686641080.4375
-450.91,1686641080.453125
-486.50,1686641080.46875
-515.74,1686641080.484375
-537.23,1686641080.5
-549.22,1686641080.515625
-549.96,1686641080.53125
-538.37,1686641080.546875
-514.21,1686641080.5625
-478.67,1686641080.578125
-433.88,1686641080.59375
-382.45,1686641080.609375
-327.02,1686641080.625
-269.84,1686641080.640625
-212.63,1686641080.65625
-156.66,1686641080.671875
-102.95,1686641080.6875
-52.37,1686641080.703125
-5.90,1686641080.71875
35.58,1686641080.734375
71.43,1686641080.75
101.35,1686641080.765625
125.50,1686641080.78125
144.38,1686641080.796875
158.69,1686641080.8125
169.15,1686641080.828125
176.37,1686641080.84375
180.75,1686641080.859375
182.57,1686641080.875
182.07,1686641080.890625
179.51,1686641080.90625
175.23,1686641080.921875
169.65,1686641080.9375
163.18,1686641080.953125
156.15,1686641080.96875
148.81,1686641080.984375
141.30,1686641081.0
133.69,1686641081.015625
126.02,1686641081.03125
118.33,1686641081.046875
110.69,1686641081.0625
103.16,1686641081.078125
95.80,1686641081.09375
88.68,1686641081.109375
81.83,1686641081.125
75.25,1686641081.140625
68.95,1686641081.15625
62.95,1686641081.171875
57.25,1686641081.1875
51.86,1686641081.203125
46.78,1686641081.21875
42.03,1686641081.234375
37.59,1686641081.25
33.45,1686641081.265625
29.61,1686641081.28125
26.07,1686641081.296875
22.81,1686641081.3125
19.83,1686641081.328125
17.11,1686641081.34375
14.67,1686641081.359375
12.48,1686641081.375
10.54,1686641081.390625
8.83,1686641081.40625
7.35,1686641081.421875
6.07,1686641081.4375
4.97,1686641081.453125
4.05,1686641081.46875
3.27,1686641081.484375
2.62,1686641081.5
2.09,1686641081.515625
1.65,1686641081.53125
1.30,1686641081.546875
1.01,1686641081.5625
0.79,1686641081.578125
0.61,1686641081.59375
0.48,1686641081.609375
0.37,1686641081.625
0.29,1686641081.640625
0.23,1686641081.65625
0.20,1686641081.671875
0.17,1686641081.6875
0.16,1686641081.703125
0.16,1686641081.71875
0.18,1686641081.734375
0.19,1686641081.75
0.22,1686641081.765625
0.25,1686641081.78125
0.29,1686641081.796875
0.33,1686641081.8125
0.37,1686641081.828125
0.41,1686641081.84375
0.46,1686641081.859375
0.51,1686641081.875
0.55,1686641081.890625
0.60,1686641081.90625
0.65,1686641081.921875
0.71,1686641081.9375
0.77,1686641081.953125
0.84,1686641081.96875
0.91,1686641081.984375
0.99,1686641082.0
1.08,1686641082.015625
1.18,1686641082.03125
1.28,1686641082.046875
1.40,1686641082.0625
1.54,1686641082.078125
1.69,1686641082.09375
1.86,1686641082.109375
2.05,1686641082.125
2.26,1686641082.140625
2.49,1686641082.15625
2.75,1686641082.171875
3.04,1686641082.1875
3.35,1686641082.203125
3.69,1686641082.21875
4.07,1686641082.234375
4.48,1686641082.25
4.93,1686641082.265625
5.41,1686641082.28125
5.93,1686641082.296875
6.49,1686641082.3125
7.09,1686641082.328125
7.74,1686641082.34375
8.42,1686641082.359375
9.15,1686641082.375
9.93,1686641082.390625
10.75,1686641082.40625
11.61,1686641082.421875
12.52,1686641082.4375
13.48,1686641082.453125
14.49,1686641082.46875
15.56,1686641082.484375
16.69,1686641082.5
17.89,1686641082.515625
19.14,1686641082.53125
20.40,1686641082.546875
21.66,1686641082.5625
22.84,1686641082.578125
23.83,1686641082.59375
24.55,1686641082.609375
24.86,1686641082.625
24.64,1686641082.640625
23.78,1686641082.65625
22.22,1686641082.671875
19.92,1686641082.6875
16.93,1686641082.703125
13.28,1686641082.71875
9.16,1686641082.734375
4.73,1686641082.75
0.20,1686641082.765625
-4.21,1686641082.78125
-8.28,1686641082.796875
-11.84,1686641082.8125
-14.76,1686641082.828125
-16.96,1686641082.84375
-18.41,1686641082.859375
-19.14,1686641082.875
-19.24,1686641082.890625
-18.82,1686641082.90625
-17.97,1686641082.921875
-16.81,1686641082.9375
-15.44,1686641082.953125
-13.93,1686641082.96875
-12.31,1686641082.984375
-10.62,1686641083.0
-8.85,1686641083.015625
-7.03,1686641083.03125
-5.17,1686641083.046875
-3.29,1686641083.0625
-1.37,1686641083.078125
0.59,1686641083.09375
2.62,1686641083.109375
4.74,1686641083.125
6.95,1686641083.140625
9.33,1686641083.15625
11.74,1686641083.171875
14.15,1686641083.1875
16.56,1686641083.203125
18.98,1686641083.21875
21.47,1686641083.234375
24.09,1686641083.25
26.91,1686641083.265625
30.00,1686641083.28125
33.48,1686641083.296875
37.18,1686641083.3125
41.03,1686641083.328125
45.03,1686641083.34375
49.24,1686641083.359375
53.79,1686641083.375
58.78,1686641083.390625
64.34,1686641083.40625
70.57,1686641083.421875
77.59,1686641083.4375
84.98,1686641083.453125
92.53,1686641083.46875
100.06,1686641083.484375
107.51,1686641083.5
114.91,1686641083.515625
122.30,1686641083.53125
129.75,1686641083.546875
137.29,1686641083.5625
144.95,1686641083.578125
152.12,1686641083.59375
158.41,1686641083.609375
163.62,1686641083.625
167.60,1686641083.640625
170.29,1686641083.65625
171.38,1686641083.671875
170.07,1686641083.6875
164.73,1686641083.703125
157.39,1686641083.71875
148.07,1686641083.734375
136.63,1686641083.75
123.07,1686641083.765625
107.70,1686641083.78125
91.11,1686641083.796875
73.94,1686641083.8125
56.67,1686641083.828125
39.50,1686641083.84375
22.35,1686641083.859375
4.37,1686641083.875
-14.93,1686641083.890625
-35.58,1686641083.90625
-57.07,1686641083.921875
-78.62,1686641083.9375
-99.37,1686641083.953125
-118.75,1686641083.96875
-136.64,1686641083.984375
-153.23,1686641084.0
-169.47,1686641084.015625
-186.36,1686641084.03125
-204.90,1686641084.046875
-225.96,1686641084.0625
-249.79,1686641084.078125
-275.37,1686641084.09375
-300.14,1686641084.109375
-320.18,1686641084.125
-331.32,1686641084.140625
-330.99,1686641084.15625
-318.89,1686641084.171875
-297.44,1686641084.1875
-270.70,1686641084.203125
-242.95,1686641084.21875
-217.23,1686641084.234375
-194.81,1686641084.25
-175.55,1686641084.265625
-158.75,1686641084.28125
-144.00,1686641084.296875
-131.23,1686641084.3125
-120.42,1686641084.328125
-111.27,1686641084.34375
-103.19,1686641084.359375
-95.53,1686641084.375
-87.90,1686641084.390625
-80.38,1686641084.40625
-73.26,1686641084.421875
-66.88,1686641084.4375
-61.09,1686641084.453125
-55.13,1686641084.46875
-47.83,1686641084.484375
-38.10,1686641084.5
-25.31,1686641084.515625
-9.83,1686641084.53125
7.08,1686641084.546875
23.50,1686641084.5625
37.46,1686641084.578125
47.67,1686641084.59375
53.86,1686641084.609375
56.82,1686641084.625
58.03,1686641084.640625
58.85,1686641084.65625
60.04,1686641084.671875
61.52,1686641084.6875
62.50,1686641084.703125
61.98,1686641084.71875
59.35,1686641084.734375
54.64,1686641084.75
48.57,1686641084.765625
42.16,1686641084.78125
36.32,1686641084.796875
31.45,1686641084.8125
27.36,1686641084.828125
23.45,1686641084.84375
19.02,1686641084.859375
13.58,1686641084.875
7.03,1686641084.890625
-0.35,1686641084.90625
-8.07,1686641084.921875
-15.56,1686641084.9375
-22.30,1686641084.953125
-27.83,1686641084.96875
-31.69,1686641084.984375
-33.41,1686641085.0
-32.59,1686641085.015625
-28.98,1686641085.03125
-22.59,1686641085.046875
-13.79,1686641085.0625
-3.14,1686641085.078125
8.57,1686641085.09375
20.55,1686641085.109375
31.92,1686641085.125
41.73,1686641085.140625
49.11,1686641085.15625
53.33,1686641085.171875
54.04,1686641085.1875
51.51,1686641085.203125
46.49,1686641085.21875
40.02,1686641085.234375
33.12,1686641085.25
26.52,1686641085.265625
20.64,1686641085.28125
15.61,1686641085.296875
11.41,1686641085.3125
7.92,1686641085.328125
4.87,1686641085.34375
1.85,1686641085.359375
-1.57,1686641085.375
-5.75,1686641085.390625
-10.83,1686641085.40625
-16.68,1686641085.421875
-23.03,1686641085.4375
-29.57,1686641085.453125
-35.89,1686641085.46875
-41.43,1686641085.484375
-45.30,1686641085.5
-46.44,1686641085.515625
-43.81,1686641085.53125
-36.97,1686641085.546875
-26.24,1686641085.5625
-12.83,1686641085.578125
1.66,1686641085.59375
15.74,1686641085.609375
28.45,1686641085.625
39.43,1686641085.640625
48.65,1686641085.65625
56.13,1686641085.671875
61.63,1686641085.6875
64.77,1686641085.703125
65.24,1686641085.71875
63.11,1686641085.734375
59.00,1686641085.75
53.99,1686641085.765625
49.35,1686641085.78125
46.21,1686641085.796875
45.17,1686641085.8125
46.20,1686641085.828125
48.65,1686641085.84375
51.51,1686641085.859375
53.68,1686641085.875
54.24,1686641085.890625
52.55,1686641085.90625
48.24,1686641085.921875
41.14,1686641085.9375
31.37,1686641085.953125
19.38,1686641085.96875
6.13,1686641085.984375
-6.80,1686641086.0
-17.52,1686641086.015625
-24.11,1686641086.03125
-25.28,1686641086.046875
-20.79,1686641086.0625
-11.52,1686641086.078125
0.63,1686641086.09375
13.37,1686641086.109375
24.62,1686641086.125
32.98,1686641086.140625
37.92,1686641086.15625
39.67,1686641086.171875
38.94,1686641086.1875
36.56,1686641086.203125
33.12,1686641086.21875
28.91,1686641086.234375
23.95,1686641086.25
18.21,1686641086.265625
11.74,1686641086.28125
4.80,1686641086.296875
-2.20,1686641086.3125
-8.74,1686641086.328125
-14.49,1686641086.34375
-19.26,1686641086.359375
-23.08,1686641086.375
-26.11,1686641086.390625
-28.64,1686641086.40625
-31.07,1686641086.421875
-34.01,1686641086.4375
-38.08,1686641086.453125
-43.72,1686641086.46875
-50.74,1686641086.484375
-58.18,1686641086.5
-64.39,1686641086.515625
-67.45,1686641086.53125
-65.91,1686641086.546875
-59.28,1686641086.5625
-48.27,1686641086.578125
-34.58,1686641086.59375
-20.34,1686641086.609375
-7.54,1686641086.625
2.49,1686641086.640625
9.20,1686641086.65625
12.83,1686641086.671875
14.08,1686641086.6875
13.74,1686641086.703125
12.43,1686641086.71875
10.36,1686641086.734375
7.41,1686641086.75
3.32,1686641086.765625
-1.92,1686641086.78125
-7.92,1686641086.796875
-13.95,1686641086.8125
-19.27,1686641086.828125
-23.37,1686641086.84375
-26.32,1686641086.859375
-28.47,1686641086.875
-30.29,1686641086.890625
-31.96,1686641086.90625
-33.42,1686641086.921875
-34.53,1686641086.9375
-35.28,1686641086.953125
-35.88,1686641086.96875
-36.55,1686641086.984375
-37.09,1686641087.0
-36.68,1686641087.015625
-34.02,1686641087.03125
-27.84,1686641087.046875
-17.46,1686641087.0625
-3.18,1686641087.078125
13.77,1686641087.09375
31.69,1686641087.109375
48.86,1686641087.125
63.89,1686641087.140625
75.77,1686641087.15625
83.75,1686641087.171875
87.29,1686641087.1875
86.18,1686641087.203125
80.70,1686641087.21875
71.72,1686641087.234375
60.60,1686641087.25
48.79,1686641087.265625
37.45,1686641087.28125
27.21,1686641087.296875
18.16,1686641087.3125
10.12,1686641087.328125
2.93,1686641087.34375
-3.43,1686641087.359375
-8.87,1686641087.375
-13.54,1686641087.390625
-17.93,1686641087.40625
-22.80,1686641087.421875
-28.99,1686641087.4375
-37.01,1686641087.453125
-46.73,1686641087.46875
-57.42,1686641087.484375
-67.74,1686641087.5
-76.08,1686641087.515625
-80.90,1686641087.53125
-80.96,1686641087.546875
-75.64,1686641087.5625
-65.00,1686641087.578125
-49.94,1686641087.59375
-31.96,1686641087.609375
-12.98,1686641087.625
5.14,1686641087.640625
20.94,1686641087.65625
33.62,1686641087.671875
43.03,1686641087.6875
49.47,1686641087.703125
53.52,1686641087.71875
55.75,1686641087.734375
56.61,1686641087.75
56.36,1686641087.765625
55.12,1686641087.78125
52.92,1686641087.796875
49.74,1686641087.8125
45.53,1686641087.828125
40.16,1686641087.84375
33.53,1686641087.859375
25.65,1686641087.875
16.72,1686641087.890625
7.24,1686641087.90625
-2.07,1686641087.921875
-10.42,1686641087.9375
-17.24,1686641087.953125
-22.36,1686641087.96875
-25.95,1686641087.984375
-28.30,1686641088.0
-29.47,1686641088.015625
-29.08,1686641088.03125
-26.43,1686641088.046875
-20.94,1686641088.0625
-12.56,1686641088.078125
-2.00,1686641088.09375
9.51,1686641088.109375
20.63,1686641088.125
30.48,1686641088.140625
38.75,1686641088.15625
45.53,1686641088.171875
50.97,1686641088.1875
54.96,1686641088.203125
57.10,1686641088.21875
57.00,1686641088.234375
54.55,1686641088.25
50.08,1686641088.265625
44.24,1686641088.28125
37.78,1686641088.296875
31.31,1686641088.3125
25.26,1686641088.328125
19.94,1686641088.34375
15.60,1686641088.359375
12.38,1686641088.375
10.18,1686641088.390625
8.63,1686641088.40625
7.11,1686641088.421875
4.90,1686641088.4375
1.29,1686641088.453125
-4.20,1686641088.46875
-11.83,1686641088.484375
-21.49,1686641088.5
-32.51,1686641088.515625
-43.55,1686641088.53125
-52.66,1686641088.546875
-57.81,1686641088.5625
-57.47,1686641088.578125
-51.28,1686641088.59375
-40.17,1686641088.609375
-26.02,1686641088.625
-10.95,1686641088.640625
3.35,1686641088.65625
15.78,1686641088.671875
25.77,1686641088.6875
32.87,1686641088.703125
36.64,1686641088.71875
36.77,1686641088.734375
33.44,1686641088.75
27.48,1686641088.765625
20.13,1686641088.78125
12.66,1686641088.796875
5.89,1686641088.8125
0.16,1686641088.828125
-4.48,1686641088.84375
-8.01,1686641088.859375
-10.27,1686641088.875
-11.17,1686641088.890625
-10.89,1686641088.90625
-10.01,1686641088.921875
-9.34,1686641088.9375
-9.62,1686641088.953125
-11.21,1686641088.96875
-14.06,1686641088.984375
-17.77,1686641089.0
-21.80,1686641089.015625
-25.48,1686641089.03125
-27.96,1686641089.046875
-28.21,1686641089.0625
-25.26,1686641089.078125
-18.61,1686641089.09375
-8.54,1686641089.109375
3.75,1686641089.125
16.53,1686641089.140625
28.07,1686641089.15625
37.14,1686641089.171875
43.29,1686641089.1875
46.62,1686641089.203125
47.56,1686641089.21875
46.47,1686641089.234375
43.58,1686641089.25
39.00,1686641089.265625
32.94,1686641089.28125
25.75,1686641089.296875
17.99,1686641089.3125
10.38,1686641089.328125
3.58,1686641089.34375
-1.88,1686641089.359375
-5.71,1686641089.375
-7.97,1686641089.390625
-9.04,1686641089.40625
-9.58,1686641089.421875
-10.45,1686641089.4375
-12.48,1686641089.453125
-16.32,1686641089.46875
-22.25,1686641089.484375
-29.98,1686641089.5
-38.61,1686641089.515625
-46.60,1686641089.53125
-52.07,1686641089.546875
-53.22,1686641089.5625
-48.93,1686641089.578125
-39.15,1686641089.59375
-25.12,1686641089.609375
-8.98,1686641089.625
6.86,1686641089.640625
20.40,1686641089.65625
30.46,1686641089.671875
36.84,1686641089.6875
39.94,1686641089.703125
40.45,1686641089.71875
38.96,1686641089.734375
35.92,1686641089.75
31.70,1686641089.765625
26.64,1686641089.78125
21.15,1686641089.796875
15.62,1686641089.8125
10.33,1686641089.828125
5.35,1686641089.84375
0.64,1686641089.859375
-3.86,1686641089.875
-8.23,1686641089.890625
-12.44,1686641089.90625
-16.43,1686641089.921875
-20.23,1686641089.9375
-23.97,1686641089.953125
-27.79,1686641089.96875
-31.75,1686641089.984375
-35.63,1686641090.0
-38.89,1686641090.015625
-40.74,1686641090.03125
-40.37,1686641090.046875
-37.19,1686641090.0625
-30.95,1686641090.078125
-21.88,1686641090.09375
-10.57,1686641090.109375
2.06,1686641090.125
14.91,1686641090.140625
26.89,1686641090.15625
36.98,1686641090.171875
44.46,1686641090.1875
48.92,1686641090.203125
50.35,1686641090.21875
49.04,1686641090.234375
45.54,1686641090.25
40.54,1686641090.265625
34.76,1686641090.28125
28.87,1686641090.296875
23.37,1686641090.3125
18.44,1686641090.328125
14.00,1686641090.34375
9.66,1686641090.359375
4.96,1686641090.375
-0.40,1686641090.390625
-6.52,1686641090.40625
-13.26,1686641090.421875
-20.45,1686641090.4375
-27.93,1686641090.453125
-35.61,1686641090.46875
-43.32,1686641090.484375
-50.69,1686641090.5
-57.02,1686641090.515625
-61.38,1686641090.53125
-62.84,1686641090.546875
-60.84,1686641090.5625
-55.30,1686641090.578125
-46.72,1686641090.59375
-36.01,1686641090.609375
-24.30,1686641090.625
-12.75,1686641090.640625
-2.43,1686641090.65625
5.92,1686641090.671875
11.94,1686641090.6875
15.80,1686641090.703125
17.91,1686641090.71875
18.77,1686641090.734375
18.58,1686641090.75
17.22,1686641090.765625
14.34,1686641090.78125
9.69,1686641090.796875
3.36,1686641090.8125
-4.10,1686641090.828125
-11.88,1686641090.84375
-19.24,1686641090.859375
-25.70,1686641090.875
-31.12,1686641090.890625
-35.55,1686641090.90625
-39.00,1686641090.921875
-41.48,1686641090.9375
-43.13,1686641090.953125
-44.38,1686641090.96875
-45.89,1686641090.984375
-48.15,1686641091.0
-51.04,1686641091.015625
-53.54,1686641091.03125
-53.79,1686641091.046875
-49.75,1686641091.0625
-40.04,1686641091.078125
-24.62,1686641091.09375
-4.91,1686641091.109375
16.64,1686641091.125
37.42,1686641091.140625
55.36,1686641091.15625
69.37,1686641091.171875
79.14,1686641091.1875
84.87,1686641091.203125
86.92,1686641091.21875
85.77,1686641091.234375
82.10,1686641091.25
76.86,1686641091.265625
71.17,1686641091.28125
66.02,1686641091.296875
62.01,1686641091.3125
59.26,1686641091.328125
57.44,1686641091.34375
55.97,1686641091.359375
54.30,1686641091.375
52.01,1686641091.390625
48.90,1686641091.40625
44.94,1686641091.421875
40.15,1686641091.4375
34.52,1686641091.453125
27.87,1686641091.46875
19.93,1686641091.484375
10.58,1686641091.5
0.15,1686641091.515625
-10.39,1686641091.53125
-19.42,1686641091.546875
-25.21,1686641091.5625
-26.44,1686641091.578125
-22.68,1686641091.59375
-14.52,1686641091.609375
-3.30,1686641091.625
9.33,1686641091.640625
21.82,1686641091.65625
32.92,1686641091.671875
41.67,1686641091.6875
47.41,1686641091.703125
49.79,1686641091.71875
48.82,1686641091.734375
44.91,1686641091.75
38.84,1686641091.765625
31.58,1686641091.78125
24.14,1686641091.796875
17.22,1686641091.8125
11.06,1686641091.828125
5.28,1686641091.84375
-1.01,1686641091.859375
-8.75,1686641091.875
-18.41,1686641091.890625
-29.54,1686641091.90625
-40.66,1686641091.921875
-49.91,1686641091.9375
-55.83,1686641091.953125
-58.26,1686641091.96875
-58.58,1686641091.984375
-59.34,1686641092.0
-63.41,1686641092.015625
-72.85,1686641092.03125
-88.25,1686641092.046875
-108.33,1686641092.0625
-130.09,1686641092.078125
-149.26,1686641092.09375
-161.07,1686641092.109375
-161.44,1686641092.125
-148.03,1686641092.140625
-121.08,1686641092.15625
-83.50,1686641092.171875
-40.11,1686641092.1875
3.58,1686641092.203125
42.75,1686641092.21875
74.09,1686641092.234375
95.96,1686641092.25
108.10,1686641092.265625
111.22,1686641092.28125
106.71,1686641092.296875
96.60,1686641092.3125
83.40,1686641092.328125
69.89,1686641092.34375
58.57,1686641092.359375
51.07,1686641092.375
47.93,1686641092.390625
48.64,1686641092.40625
52.18,1686641092.421875
57.34,1686641092.4375
63.06,1686641092.453125
68.48,1686641092.46875
72.77,1686641092.484375
75.15,1686641092.5
74.88,1686641092.515625
71.54,1686641092.53125
65.15,1686641092.546875
56.23,1686641092.5625
45.61,1686641092.578125
34.14,1686641092.59375
22.56,1686641092.609375
11.40,1686641092.625
1.19,1686641092.640625
-7.60,1686641092.65625
-14.55,1686641092.671875
-19.51,1686641092.6875
-22.83,1686641092.703125
-25.30,1686641092.71875
-27.89,1686641092.734375
-31.22,1686641092.75
-35.36,1686641092.765625
-39.78,1686641092.78125
-43.76,1686641092.796875
-46.88,1686641092.8125
-49.23,1686641092.828125
-51.28,1686641092.84375
-53.44,1686641092.859375
-55.59,1686641092.875
-57.14,1686641092.890625
-57.33,1686641092.90625
-55.71,1686641092.921875
-52.54,1686641092.9375
-48.73,1686641092.953125
-45.58,1686641092.96875
-44.29,1686641092.984375
-45.62,1686641093.0
-49.64,1686641093.015625
-55.83,1686641093.03125
-63.01,1686641093.046875
-69.64,1686641093.0625
-73.97,1686641093.078125
-74.45,1686641093.09375
-70.04,1686641093.109375
-60.53,1686641093.125
-46.64,1686641093.140625
-29.85,1686641093.15625
-11.97,1686641093.171875
5.20,1686641093.1875
20.32,1686641093.203125
32.63,1686641093.21875
41.93,1686641093.234375
48.38,1686641093.25
52.22,1686641093.265625
53.66,1686641093.28125
52.76,1686641093.296875
49.68,1686641093.3125
44.77,1686641093.328125
38.69,1686641093.34375
32.23,1686641093.359375
26.13,1686641093.375
20.82,1686641093.390625
16.30,1686641093.40625
12.26,1686641093.421875
8.36,1686641093.4375
4.44,1686641093.453125
0.58,1686641093.46875
-3.03,1686641093.484375
-6.29,1686641093.5
-9.44,1686641093.515625
-13.04,1686641093.53125
-17.65,1686641093.546875
-23.46,1686641093.5625
-29.88,1686641093.578125
-35.53,1686641093.59375
-38.51,1686641093.609375
-37.14,1686641093.625
-30.70,1686641093.640625
-19.77,1686641093.65625
-6.14,1686641093.671875
7.88,1686641093.6875
20.15,1686641093.703125
29.40,1686641093.71875
35.33,1686641093.734375
38.32,1686641093.75
38.97,1686641093.765625
37.74,1686641093.78125
34.81,1686641093.796875
30.24,1686641093.8125
24.22,1686641093.828125
17.25,1686641093.84375
10.12,1686641093.859375
3.72,1686641093.875
-1.27,1686641093.890625
-4.54,1686641093.90625
-6.23,1686641093.921875
-6.80,1686641093.9375
-6.84,1686641093.953125
-6.91,1686641093.96875
-7.52,1686641093.984375
-9.15,1686641094.0
-12.34,1686641094.015625
-17.54,1686641094.03125
-24.90,1686641094.046875
-33.92,1686641094.0625
-43.36,1686641094.078125
-51.41,1686641094.09375
-56.18,1686641094.109375
-56.34,1686641094.125
-51.46,1686641094.140625
-42.22,1686641094.15625
-30.06,1686641094.171875
-16.76,1686641094.1875
-4.04,1686641094.203125
6.85,1686641094.21875
15.29,1686641094.234375
21.31,1686641094.25
25.40,1686641094.265625
28.18,1686641094.28125
30.08,1686641094.296875
31.15,1686641094.3125
31.14,1686641094.328125
29.81,1686641094.34375
27.26,1686641094.359375
24.06,1686641094.375
20.93,1686641094.390625
18.48,1686641094.40625
16.74,1686641094.421875
15.16,1686641094.4375
12.99,1686641094.453125
9.70,1686641094.46875
5.16,1686641094.484375
-0.36,1686641094.5
-6.55,1686641094.515625
-13.32,1686641094.53125
-20.82,1686641094.546875
-29.07,1686641094.5625
-37.56,1686641094.578125
-45.12,1686641094.59375
-50.14,1686641094.609375
-51.14,1686641094.625
-47.46,1686641094.640625
-39.44,1686641094.65625
-28.36,1686641094.671875
-15.79,1686641094.6875
-3.16,1686641094.703125
8.55,1686641094.71875
18.70,1686641094.734375
26.85,1686641094.75
32.61,1686641094.765625
35.60,1686641094.78125
35.69,1686641094.796875
33.09,1686641094.8125
28.31,1686641094.828125
22.04,1686641094.84375
14.95,1686641094.859375
7.58,1686641094.875
0.32,1686641094.890625
-6.49,1686641094.90625
-12.52,1686641094.921875
-17.66,1686641094.9375
-22.06,1686641094.953125
-26.15,1686641094.96875
-30.48,1686641094.984375
-35.50,1686641095.0
-41.35,1686641095.015625
-47.85,1686641095.03125
-54.65,1686641095.046875
-61.38,1686641095.0625
-67.67,1686641095.078125
-73.04,1686641095.09375
-76.73,1686641095.109375
-77.74,1686641095.125
-75.10,1686641095.140625
-68.28,1686641095.15625
-57.51,1686641095.171875
-43.93,1686641095.1875
-29.28,1686641095.203125
-15.39,1686641095.21875
-3.68,1686641095.234375
5.14,1686641095.25
11.17,1686641095.265625
14.94,1686641095.28125
17.02,1686641095.296875
17.63,1686641095.3125
16.47,1686641095.328125
12.79,1686641095.34375
5.73,1686641095.359375
-5.31,1686641095.375
-20.25,1686641095.390625
-38.36,1686641095.40625
-58.30,1686641095.421875
-78.60,1686641095.4375
-98.01,1686641095.453125
-115.69,1686641095.46875
-131.27,1686641095.484375
-144.87,1686641095.5
-157.10,1686641095.515625
-169.12,1686641095.53125
-182.55,1686641095.546875
-198.94,1686641095.5625
-219.12,1686641095.578125
-242.53,1686641095.59375
-266.91,1686641095.609375
-288.68,1686641095.625
-303.88,1686641095.640625
-309.33,1686641095.65625
-303.48,1686641095.671875
-286.57,1686641095.6875
-260.18,1686641095.703125
-226.38,1686641095.71875
-187.11,1686641095.734375
-144.02,1686641095.75
-98.63,1686641095.765625
-52.49,1686641095.78125
-7.20,1686641095.796875
36.17,1686641095.8125
77.33,1686641095.828125
117.11,1686641095.84375
157.13,1686641095.859375
199.16,1686641095.875
244.52,1686641095.890625
293.95,1686641095.90625
347.93,1686641095.921875
406.45,1686641095.9375
468.36,1686641095.953125
530.38,1686641095.96875
587.07,1686641095.984375
632.31,1686641096.0
661.88,1686641096.015625
675.50,1686641096.03125
676.88,1686641096.046875
671.51,1686641096.0625
663.19,1686641096.078125
651.79,1686641096.09375
633.60,1686641096.109375
603.98,1686641096.125
560.74,1686641096.140625
505.67,1686641096.15625
443.45,1686641096.171875
378.71,1686641096.1875
313.26,1686641096.203125
245.55,1686641096.21875
172.58,1686641096.234375
93.18,1686641096.25
10.27,1686641096.265625
-69.20,1686641096.28125
-136.82,1686641096.296875
-185.77,1686641096.3125
-213.25,1686641096.328125
-220.75,1686641096.34375
-212.49,1686641096.359375
-193.34,1686641096.375
-167.50,1686641096.390625
-138.49,1686641096.40625
-109.93,1686641096.421875
-86.00,1686641096.4375
-70.70,1686641096.453125
-66.60,1686641096.46875
-73.69,1686641096.484375
-89.44,1686641096.5
-110.22,1686641096.515625
-133.14,1686641096.53125
-156.86,1686641096.546875
-181.10,1686641096.5625
-205.07,1686641096.578125
-226.29,1686641096.59375
-240.65,1686641096.609375
-243.61,1686641096.625
-231.69,1686641096.640625
-203.62,1686641096.65625
-160.51,1686641096.671875
-105.50,1686641096.6875
-43.22,1686641096.703125
20.56,1686641096.71875
79.18,1686641096.734375
125.60,1686641096.75
153.20,1686641096.765625
157.08,1686641096.78125
135.10,1686641096.796875
88.91,1686641096.8125
24.06,1686641096.828125
-50.72,1686641096.84375
-125.06,1686641096.859375
-189.36,1686641096.875
-237.13,1686641096.890625
-266.75,1686641096.90625
-281.66,1686641096.921875
-289.06,1686641096.9375
-297.08,1686641096.953125
-311.90,1686641096.96875
-335.54,1686641096.984375
-365.15,1686641097.0
-393.98,1686641097.015625
-413.68,1686641097.03125
-416.99,1686641097.046875
-399.80,1686641097.0625
-361.98,1686641097.078125
-306.81,1686641097.09375
-239.48,1686641097.109375
-165.30,1686641097.125
-88.31,1686641097.140625
-10.70,1686641097.15625
66.86,1686641097.171875
144.12,1686641097.1875
219.88,1686641097.203125
290.73,1686641097.21875
350.85,1686641097.234375
392.99,1686641097.25
410.64,1686641097.265625
400.51,1686641097.28125
363.95,1686641097.296875
306.86,1686641097.3125
238.04,1686641097.328125
166.44,1686641097.34375
98.95,1686641097.359375
39.50,1686641097.375
-10.61,1686641097.390625
-51.49,1686641097.40625
-83.81,1686641097.421875
-108.50,1686641097.4375
-127.00,1686641097.453125
-141.37,1686641097.46875
-154.01,1686641097.484375
-166.82,1686641097.5
-180.53,1686641097.515625
-194.59,1686641097.53125
-207.63,1686641097.546875
-218.46,1686641097.5625
-226.91,1686641097.578125
-234.32,1686641097.59375
-243.18,1686641097.609375
-256.24,1686641097.625
-275.12,1686641097.640625
-299.03,1686641097.65625
-324.20,1686641097.671875
-344.50,1686641097.6875
-352.88,1686641097.703125
-343.76,1686641097.71875
-314.84,1686641097.734375
-267.81,1686641097.75
-207.51,1686641097.765625
-139.87,1686641097.78125
-69.39,1686641097.796875
2.38,1686641097.8125
76.55,1686641097.828125
154.83,1686641097.84375
236.52,1686641097.859375
316.52,1686641097.875
385.52,1686641097.890625
432.46,1686641097.90625
448.37,1686641097.921875
429.51,1686641097.9375
378.74,1686641097.953125
304.72,1686641097.96875
219.50,1686641097.984375
135.59,1686641098.0
63.20,1686641098.015625
8.42,1686641098.03125
-27.45,1686641098.046875
-47.43,1686641098.0625
-57.10,1686641098.078125
-62.41,1686641098.09375
-67.37,1686641098.109375
-72.97,1686641098.125
-77.16,1686641098.140625
-76.27,1686641098.15625
-66.88,1686641098.171875
-47.48,1686641098.1875
-18.79,1686641098.203125
16.34,1686641098.21875
53.53,1686641098.234375
87.44,1686641098.25
112.59,1686641098.265625
124.65,1686641098.28125
122.18,1686641098.296875
108.20,1686641098.3125
90.08,1686641098.328125
77.39,1686641098.34375
78.30,1686641098.359375
96.01,1686641098.375
127.00,1686641098.390625
162.28,1686641098.40625
191.43,1686641098.421875
207.52,1686641098.4375
210.40,1686641098.453125
206.31,1686641098.46875
203.90,1686641098.484375
208.77,1686641098.5
219.79,1686641098.515625
229.16,1686641098.53125
226.37,1686641098.546875
203.25,1686641098.5625
157.69,1686641098.578125
93.98,1686641098.59375
20.21,1686641098.609375
-55.60,1686641098.625
-128.04,1686641098.640625
-194.46,1686641098.65625
-253.27,1686641098.671875
-302.19,1686641098.6875
-337.86,1686641098.703125
-357.16,1686641098.71875
-359.40,1686641098.734375
-347.43,1686641098.75
-327.08,1686641098.765625
-304.79,1686641098.78125
-285.20,1686641098.796875
-269.37,1686641098.8125
-254.71,1686641098.828125
-236.56,1686641098.84375
-210.30,1686641098.859375
-173.16,1686641098.875
-124.83,1686641098.890625
-67.19,1686641098.90625
-3.54,1686641098.921875
62.05,1686641098.9375
124.89,1686641098.953125
179.96,1686641098.96875
222.33,1686641098.984375
248.21,1686641099.0
256.02,1686641099.015625
247.11,1686641099.03125
225.48,1686641099.046875
196.51,1686641099.0625
165.27,1686641099.078125
135.17,1686641099.09375
107.45,1686641099.109375
81.80,1686641099.125
57.55,1686641099.140625
34.66,1686641099.15625
14.08,1686641099.171875
-2.59,1686641099.1875
-13.88,1686641099.203125
-19.01,1686641099.21875
-17.94,1686641099.234375
-11.16,1686641099.25
0.73,1686641099.265625
17.04,1686641099.28125
36.81,1686641099.296875
58.46,1686641099.3125
79.69,1686641099.328125
97.66,1686641099.34375
109.70,1686641099.359375
114.02,1686641099.375
110.21,1686641099.390625
99.48,1686641099.40625
84.36,1686641099.421875
68.33,1686641099.4375
55.13,1686641099.453125
48.17,1686641099.46875
49.82,1686641099.484375
61.02,1686641099.5
81.04,1686641099.515625
107.69,1686641099.53125
137.67,1686641099.546875
167.09,1686641099.5625
192.04,1686641099.578125
209.19,1686641099.59375
216.37,1686641099.609375
213.01,1686641099.625
200.16,1686641099.640625
180.23,1686641099.65625
156.13,1686641099.671875
130.46,1686641099.6875
104.76,1686641099.703125
79.31,1686641099.71875
53.41,1686641099.734375
26.05,1686641099.75
-3.16,1686641099.765625
-33.40,1686641099.78125
-62.53,1686641099.796875
-87.62,1686641099.8125
-105.93,1686641099.828125
-115.98,1686641099.84375
-118.27,1686641099.859375
-115.30,1686641099.875
-110.65,1686641099.890625
-107.72,1686641099.90625
-108.31,1686641099.921875
-111.78,1686641099.9375
-115.11,1686641099.953125
-113.64,1686641099.96875
-102.51,1686641099.984375
-78.33,1686641100.0
-40.62,1686641100.015625
7.29,1686641100.03125
58.38,1686641100.046875
103.32,1686641100.0625
133.00,1686641100.078125
141.30,1686641100.09375
127.27,1686641100.109375
95.45,1686641100.125
54.42,1686641100.140625
13.97,1686641100.15625
-17.74,1686641100.171875
-36.05,1686641100.1875
-40.19,1686641100.203125
-32.44,1686641100.21875
-16.84,1686641100.234375
2.06,1686641100.25
19.93,1686641100.265625
33.28,1686641100.28125
40.04,1686641100.296875
40.12,1686641100.3125
35.61,1686641100.328125
30.37,1686641100.34375
28.84,1686641100.359375
34.41,1686641100.375
48.17,1686641100.390625
68.23,1686641100.40625
90.26,1686641100.421875
108.73,1686641100.4375
118.69,1686641100.453125
117.06,1686641100.46875
103.52,1686641100.484375
80.32,1686641100.5
51.48,1686641100.515625
21.62,1686641100.53125
-5.30,1686641100.546875
-26.83,1686641100.5625
-42.22,1686641100.578125
-52.30,1686641100.59375
-58.68,1686641100.609375
-63.06,1686641100.625
-66.51,1686641100.640625
-69.27,1686641100.65625
-70.87,1686641100.671875
-70.62,1686641100.6875
-68.04,1686641100.703125
-63.18,1686641100.71875
-56.56,1686641100.734375
-48.84,1686641100.75
-40.52,1686641100.765625
-31.72,1686641100.78125
-22.34,1686641100.796875
-12.26,1686641100.8125
-1.68,1686641100.828125
8.67,1686641100.84375
17.49,1686641100.859375
23.21,1686641100.875
24.39,1686641100.890625
20.28,1686641100.90625
11.11,1686641100.921875
-1.82,1686641100.9375
-16.44,1686641100.953125
-30.43,1686641100.96875
-41.78,1686641100.984375
-49.17,1686641101.0
-52.06,1686641101.015625
-50.66,1686641101.03125
-45.70,1686641101.046875
-38.39,1686641101.0625
-30.22,1686641101.078125
-22.84,1686641101.09375
-17.82,1686641101.109375
-16.22,1686641101.125
-18.26,1686641101.140625
-23.17,1686641101.15625
-29.42,1686641101.171875
-35.24,1686641101.1875
-39.18,1686641101.203125
-40.55,1686641101.21875
-39.50,1686641101.234375
-36.76,1686641101.25
-33.16,1686641101.265625
-29.29,1686641101.28125
-25.36,1686641101.296875
-21.24,1686641101.3125
-16.75,1686641101.328125
-11.82,1686641101.34375
-6.64,1686641101.359375
-1.65,1686641101.375
2.60,1686641101.390625
5.53,1686641101.40625
6.64,1686641101.421875
5.65,1686641101.4375
2.56,1686641101.453125
-2.22,1686641101.46875
-8.15,1686641101.484375
-14.66,1686641101.5
-21.43,1686641101.515625
-28.37,1686641101.53125
-35.42,1686641101.546875
-42.45,1686641101.5625
-49.10,1686641101.578125
-54.98,1686641101.59375
-59.89,1686641101.609375
-64.01,1686641101.625
-67.74,1686641101.640625
-71.55,1686641101.65625
-75.56,1686641101.671875
-79.45,1686641101.6875
-82.59,1686641101.703125
-84.33,1686641101.71875
-84.30,1686641101.734375
-82.56,1686641101.75
-79.59,1686641101.765625
-76.01,1686641101.78125
-72.36,1686641101.796875
-68.98,1686641101.8125
-65.87,1686641101.828125
-62.78,1686641101.84375
-59.41,1686641101.859375
-55.70,1686641101.875
-51.96,1686641101.890625
-48.89,1686641101.90625
-47.18,1686641101.921875
-47.09,1686641101.9375
-48.20,1686641101.953125
-49.46,1686641101.96875
-49.67,1686641101.984375
-48.03,1686641102.0
-44.57,1686641102.015625
-40.04,1686641102.03125
-35.50,1686641102.046875
-31.83,1686641102.0625
-29.39,1686641102.078125
-28.07,1686641102.09375
-27.58,1686641102.109375
-27.67,1686641102.125
-28.23,1686641102.140625
-29.18,1686641102.15625
-30.27,1686641102.171875
-30.89,1686641102.1875
-30.22,1686641102.203125
-27.45,1686641102.21875
-22.01,1686641102.234375
-13.87,1686641102.25
-3.54,1686641102.265625
8.02,1686641102.28125
19.64,1686641102.296875
30.20,1686641102.3125
38.95,1686641102.328125
45.56,1686641102.34375
50.05,1686641102.359375
52.65,1686641102.375
53.51,1686641102.390625
52.64,1686641102.40625
49.96,1686641102.421875
45.44,1686641102.4375
39.43,1686641102.453125
32.57,1686641102.46875
25.81,1686641102.484375
20.01,1686641102.5
15.73,1686641102.515625
13.01,1686641102.53125
11.48,1686641102.546875
10.57,1686641102.5625
9.79,1686641102.578125
8.83,1686641102.59375
7.57,1686641102.609375
5.91,1686641102.625
3.72,1686641102.640625
0.89,1686641102.65625
-2.42,1686641102.671875
-5.58,1686641102.6875
-7.46,1686641102.703125
-6.75,1686641102.71875
-2.45,1686641102.734375
5.64,1686641102.75
16.67,1686641102.765625
28.91,1686641102.78125
40.31,1686641102.796875
49.13,1686641102.8125
54.42,1686641102.828125
56.19,1686641102.84375
55.04,1686641102.859375
51.82,1686641102.875
47.39,1686641102.890625
42.44,1686641102.90625
37.46,1686641102.921875
32.81,1686641102.9375
28.41,1686641102.953125
23.38,1686641102.96875
16.04,1686641102.984375
4.43,1686641103.0
-12.57,1686641103.015625
-34.32,1686641103.03125
-58.41,1686641103.046875
-81.99,1686641103.0625
-103.61,1686641103.078125
-124.52,1686641103.09375
-148.24,1686641103.109375
-178.60,1686641103.125
-217.32,1686641103.140625
-262.59,1686641103.15625
-309.31,1686641103.171875
-351.04,1686641103.1875
-382.15,1686641103.203125
-399.25,1686641103.21875
-401.29,1686641103.234375
-388.85,1686641103.25
-363.23,1686641103.265625
-326.04,1686641103.28125
-279.12,1686641103.296875
-224.70,1686641103.3125
-165.27,1686641103.328125
-103.29,1686641103.34375
-41.11,1686641103.359375
18.91,1686641103.375
74.63,1686641103.390625
124.33,1686641103.40625
167.19,1686641103.421875
203.86,1686641103.4375
236.36,1686641103.453125
267.52,1686641103.46875
300.14,1686641103.484375
336.09,1686641103.5
375.64,1686641103.515625
417.28,1686641103.53125
457.81,1686641103.546875
492.80,1686641103.5625
517.37,1686641103.578125
527.15,1686641103.59375
519.36,1686641103.609375
493.78,1686641103.625
453.06,1686641103.640625
402.31,1686641103.65625
348.07,1686641103.671875
296.93,1686641103.6875
253.85,1686641103.703125
220.81,1686641103.71875
196.26,1686641103.734375
175.80,1686641103.75
154.05,1686641103.765625
127.14,1686641103.78125
94.49,1686641103.796875
58.90,1686641103.8125
24.98,1686641103.828125
-3.46,1686641103.84375
-25.14,1686641103.859375
-41.32,1686641103.875
-53.93,1686641103.890625
-62.97,1686641103.90625
-65.15,1686641103.921875
-54.85,1686641103.9375
-26.88,1686641103.953125
20.50,1686641103.96875
83.90,1686641103.984375
155.64,1686641104.0
226.11,1686641104.015625
286.68,1686641104.03125
331.45,1686641104.046875
357.60,1686641104.0625
364.69,1686641104.078125
353.56,1686641104.09375
325.66,1686641104.109375
282.86,1686641104.125
227.50,1686641104.140625
162.19,1686641104.15625
89.60,1686641104.171875
12.49,1686641104.1875
-66.25,1686641104.203125
-143.12,1686641104.21875
-213.93,1686641104.234375
-274.24,1686641104.25
-319.85,1686641104.265625
-347.69,1686641104.28125
-356.02,1686641104.296875
-344.60,1686641104.3125
-314.57,1686641104.328125
-268.68,1686641104.34375
-211.49,1686641104.359375
-149.39,1686641104.375
-90.23,1686641104.390625
-41.99,1686641104.40625
-11.12,1686641104.421875
-0.93,1686641104.4375
-10.61,1686641104.453125
-35.19,1686641104.46875
-66.45,1686641104.484375
-94.54,1686641104.5
-110.09,1686641104.515625
-106.62,1686641104.53125
-82.28,1686641104.546875
-40.43,1686641104.5625
11.50,1686641104.578125
64.62,1686641104.59375
111.72,1686641104.609375
149.51,1686641104.625
178.90,1686641104.640625
203.25,1686641104.65625
225.59,1686641104.671875
246.40,1686641104.6875
262.96,1686641104.703125
270.68,1686641104.71875
265.50,1686641104.734375
245.79,1686641104.75
213.14,1686641104.765625
171.40,1686641104.78125
124.80,1686641104.796875
76.33,1686641104.8125
27.19,1686641104.828125
-22.82,1686641104.84375
-74.08,1686641104.859375
-126.49,1686641104.875
-179.70,1686641104.890625
-233.98,1686641104.90625
-290.74,1686641104.921875
-351.60,1686641104.9375
-416.53,1686641104.953125
-481.97,1686641104.96875
-540.68,1686641104.984375
-583.74,1686641105.0
-603.91,1686641105.015625
-598.71,1686641105.03125
-571.09,1686641105.046875
-527.74,1686641105.0625
-476.16,1686641105.078125
-422.36,1686641105.09375
-370.44,1686641105.109375
-323.50,1686641105.125
-284.45,1686641105.140625
-255.76,1686641105.15625
-238.06,1686641105.171875
-228.91,1686641105.1875
-223.02,1686641105.203125
-214.15,1686641105.21875
-197.68,1686641105.234375
-172.26,1686641105.25
-139.66,1686641105.265625
-103.09,1686641105.28125
-65.45,1686641105.296875
-28.39,1686641105.3125
7.28,1686641105.328125
40.53,1686641105.34375
69.66,1686641105.359375
92.49,1686641105.375
107.51,1686641105.390625
114.76,1686641105.40625
116.06,1686641105.421875
114.43,1686641105.4375
113.02,1686641105.453125
114.10,1686641105.46875
118.59,1686641105.484375
126.18,1686641105.5
136.10,1686641105.515625
147.90,1686641105.53125
161.99,1686641105.546875
179.55,1686641105.5625
201.72,1686641105.578125
228.49,1686641105.59375
258.00,1686641105.609375
286.59,1686641105.625
310.00,1686641105.640625
325.02,1686641105.65625
330.77,1686641105.671875
328.94,1686641105.6875
322.82,1686641105.703125
315.60,1686641105.71875
308.99,1686641105.734375
302.69,1686641105.75
294.97,1686641105.765625
283.75,1686641105.78125
267.63,1686641105.796875
246.41,1686641105.8125
220.88,1686641105.828125
192.25,1686641105.84375
161.65,1686641105.859375
129.82,1686641105.875
97.04,1686641105.890625
63.32,1686641105.90625
28.43,1686641105.921875
-8.05,1686641105.9375
-46.84,1686641105.953125
-88.76,1686641105.96875
-134.16,1686641105.984375
-182.11,1686641106.0
-229.88,1686641106.015625
-273.08,1686641106.03125
-307.09,1686641106.046875
-328.93,1686641106.0625
-338.85,1686641106.078125
-340.37,1686641106.09375
-338.76,1686641106.109375
-338.51,1686641106.125
-341.42,1686641106.140625
-346.05,1686641106.15625
-348.88,1686641106.171875
-346.17,1686641106.1875
-335.61,1686641106.203125
-316.73,1686641106.21875
-290.72,1686641106.234375
-259.53,1686641106.25
-225.18,1686641106.265625
-189.39,1686641106.28125
-153.49,1686641106.296875
-118.18,1686641106.3125
-83.70,1686641106.328125
-50.10,1686641106.34375
-17.73,1686641106.359375
12.46,1686641106.375
39.03,1686641106.390625
60.66,1686641106.40625
76.97,1686641106.421875
88.61,1686641106.4375
96.86,1686641106.453125
103.03,1686641106.46875
108.38,1686641106.484375
114.51,1686641106.5
123.36,1686641106.515625
136.42,1686641106.53125
152.82,1686641106.546875
167.99,1686641106.5625
174.35,1686641106.578125
164.55,1686641106.59375
135.56,1686641106.609375
91.91,1686641106.625
44.86,1686641106.640625
8.22,1686641106.65625
-7.18,1686641106.671875
2.42,1686641106.6875
33.36,1686641106.703125
77.63,1686641106.71875
126.91,1686641106.734375
175.32,1686641106.75
219.64,1686641106.765625
257.59,1686641106.78125
286.36,1686641106.796875
302.83,1686641106.8125
305.24,1686641106.828125
294.96,1686641106.84375
276.92,1686641106.859375
258.06,1686641106.875
244.59,1686641106.890625
239.52,1686641106.90625
241.47,1686641106.921875
245.42,1686641106.9375
244.94,1686641106.953125
234.66,1686641106.96875
212.12,1686641106.984375
177.95,1686641107.0
134.60,1686641107.015625
84.68,1686641107.03125
29.71,1686641107.046875
-29.96,1686641107.0625
-94.20,1686641107.078125
-162.00,1686641107.09375
-231.11,1686641107.109375
-297.94,1686641107.125
-358.43,1686641107.140625
-408.86,1686641107.15625
-446.57,1686641107.171875
-470.38,1686641107.1875
-480.72,1686641107.203125
-479.52,1686641107.21875
-469.99,1686641107.234375
-455.98,1686641107.25
-441.10,1686641107.265625
-427.93,1686641107.28125
-417.32,1686641107.296875
-408.27,1686641107.3125
-398.30,1686641107.328125
-384.38,1686641107.34375
-364.04,1686641107.359375
-336.55,1686641107.375
-303.83,1686641107.390625
-270.39,1686641107.40625
-242.26,1686641107.421875
-224.67,1686641107.4375
-219.84,1686641107.453125
-225.60,1686641107.46875
-235.97,1686641107.484375
-243.53,1686641107.5
-242.42,1686641107.515625
-230.52,1686641107.53125
-209.73,1686641107.546875
-184.25,1686641107.5625
-158.08,1686641107.578125
-132.99,1686641107.59375
-108.14,1686641107.609375
-81.05,1686641107.625
-49.42,1686641107.640625
-12.56,1686641107.65625
28.07,1686641107.671875
69.35,1686641107.6875
107.34,1686641107.703125
138.23,1686641107.71875
158.97,1686641107.734375
167.74,1686641107.75
164.30,1686641107.765625
150.05,1686641107.78125
127.60,1686641107.796875
100.22,1686641107.8125
70.84,1686641107.828125
41.56,1686641107.84375
13.45,1686641107.859375
-13.06,1686641107.875
-37.75,1686641107.890625
-60.35,1686641107.90625
-80.57,1686641107.921875
-98.19,1686641107.9375
-113.04,1686641107.953125
-124.74,1686641107.96875
-132.60,1686641107.984375
-135.83,1686641108.0
-134.03,1686641108.015625
-127.73,1686641108.03125
-118.45,1686641108.046875
-107.94,1686641108.0625
-97.24,1686641108.078125
-85.91,1686641108.09375
-72.14,1686641108.109375
-53.48,1686641108.125
-28.11,1686641108.140625
4.14,1686641108.15625
41.63,1686641108.171875
81.41,1686641108.1875
120.25,1686641108.203125
155.62,1686641108.21875
186.03,1686641108.234375
210.97,1686641108.25
230.54,1686641108.265625
245.22,1686641108.28125
255.91,1686641108.296875
264.06,1686641108.3125
271.61,1686641108.328125
280.50,1686641108.34375
292.00,1686641108.359375
306.20,1686641108.375
322.15,1686641108.390625
338.34,1686641108.40625
353.54,1686641108.421875
367.13,1686641108.4375
378.89,1686641108.453125
388.28,1686641108.46875
394.06,1686641108.484375
394.49,1686641108.5
388.33,1686641108.515625
375.61,1686641108.53125
357.89,1686641108.546875
337.67,1686641108.5625
317.28,1686641108.578125
297.93,1686641108.59375
279.51,1686641108.609375
261.18,1686641108.625
242.18,1686641108.640625
222.45,1686641108.65625
202.60,1686641108.671875
183.39,1686641108.6875
165.18,1686641108.703125
147.61,1686641108.71875
129.75,1686641108.734375
110.63,1686641108.75
89.71,1686641108.765625
67.09,1686641108.78125
43.43,1686641108.796875
19.62,1686641108.8125
-3.58,1686641108.828125
-25.68,1686641108.84375
-46.38,1686641108.859375
-65.48,1686641108.875
-82.56,1686641108.890625
-97.12,1686641108.90625
-108.76,1686641108.921875
-117.58,1686641108.9375
-124.30,1686641108.953125
-130.23,1686641108.96875
-136.81,1686641108.984375
-144.96,1686641109.0
-154.47,1686641109.015625
-163.85,1686641109.03125
-170.65,1686641109.046875
-172.40,1686641109.0625
-167.37,1686641109.078125
-155.33,1686641109.09375
-137.65,1686641109.109375
-116.73,1686641109.125
-95.33,1686641109.140625
-75.88,1686641109.15625
-59.98,1686641109.171875
-48.32,1686641109.1875
-40.81,1686641109.203125
-37.01,1686641109.21875
-36.58,1686641109.234375
-39.54,1686641109.25
-46.34,1686641109.265625
-57.45,1686641109.28125
-72.78,1686641109.296875
-91.21,1686641109.3125
-110.63,1686641109.328125
-128.56,1686641109.34375
-143.05,1686641109.359375
-153.21,1686641109.375
-159.34,1686641109.390625
-162.33,1686641109.40625
-163.05,1686641109.421875
-162.06,1686641109.4375
-159.82,1686641109.453125
-157.02,1686641109.46875
-154.66,1686641109.484375
-153.46,1686641109.5
-153.16,1686641109.515625
-152.16,1686641109.53125
-147.79,1686641109.546875
-137.39,1686641109.5625
-119.40,1686641109.578125
-93.96,1686641109.59375
-62.76,1686641109.609375
-28.10,1686641109.625
7.91,1686641109.640625
43.60,1686641109.65625
77.37,1686641109.671875
107.19,1686641109.6875
130.57,1686641109.703125
145.09,1686641109.71875
149.45,1686641109.734375
144.24,1686641109.75
131.95,1686641109.765625
116.18,1686641109.78125
100.59,1686641109.796875
88.15,1686641109.8125
80.79,1686641109.828125
79.43,1686641109.84375
83.86,1686641109.859375
92.45,1686641109.875
102.00,1686641109.890625
108.25,1686641109.90625
107.12,1686641109.921875
96.20,1686641109.9375
75.46,1686641109.953125
46.86,1686641109.96875
13.32,1686641109.984375
-22.39,1686641110.0
-57.96,1686641110.015625
-91.17,1686641110.03125
-119.41,1686641110.046875
-139.80,1686641110.0625
-149.77,1686641110.078125
-148.15,1686641110.09375
-135.62,1686641110.109375
-114.32,1686641110.125
-87.02,1686641110.140625
-56.30,1686641110.15625
-24.29,1686641110.171875
6.90,1686641110.1875
34.81,1686641110.203125
56.69,1686641110.21875
69.92,1686641110.234375
72.84,1686641110.25
65.59,1686641110.265625
50.29,1686641110.28125
30.37,1686641110.296875
9.41,1686641110.3125
-10.18,1686641110.328125
-27.88,1686641110.34375
-44.94,1686641110.359375
-63.24,1686641110.375
-83.84,1686641110.390625
-106.00,1686641110.40625
-127.38,1686641110.421875
-145.15,1686641110.4375
-157.23,1686641110.453125
-163.02,1686641110.46875
-162.83,1686641110.484375
-156.92,1686641110.5
-145.07,1686641110.515625
-126.64,1686641110.53125
-101.68,1686641110.546875
-71.23,1686641110.5625
-37.91,1686641110.578125
-5.28,1686641110.59375
23.22,1686641110.609375
44.94,1686641110.625
59.13,1686641110.640625
66.08,1686641110.65625
66.35,1686641110.671875
60.71,1686641110.6875
50.55,1686641110.703125
37.96,1686641110.71875
25.17,1686641110.734375
13.66,1686641110.75
3.25,1686641110.765625
-6.63,1686641110.78125
-16.46,1686641110.796875
-25.40,1686641110.8125
-30.52,1686641110.828125
-26.68,1686641110.84375
-9.93,1686641110.859375
19.47,1686641110.875
55.65,1686641110.890625
88.06,1686641110.90625
107.64,1686641110.921875
109.85,1686641110.9375
96.30,1686641110.953125
74.23,1686641110.96875
56.09,1686641110.984375
52.17,1686641111.0
66.12,1686641111.015625
93.84,1686641111.03125
123.89,1686641111.046875
147.66,1686641111.0625
159.14,1686641111.078125
154.80,1686641111.09375
134.78,1686641111.109375
108.29,1686641111.125
86.35,1686641111.140625
77.37,1686641111.15625
83.76,1686641111.171875
97.61,1686641111.1875
115.55,1686641111.203125
134.73,1686641111.21875
151.94,1686641111.234375
166.83,1686641111.25
190.22,1686641111.265625
232.27,1686641111.28125
295.54,1686641111.296875
371.95,1686641111.3125
439.61,1686641111.328125
490.10,1686641111.34375
522.61,1686641111.359375
540.16,1686641111.375
550.57,1686641111.390625
573.75,1686641111.40625
626.09,1686641111.421875
713.38,1686641111.4375
828.43,1686641111.453125
946.95,1686641111.46875
1061.34,1686641111.484375
1171.00,1686641111.5
1276.35,1686641111.515625
1298.59,1686641111.53125
1184.76,1686641111.546875
935.01,1686641111.5625
610.40,1686641111.578125
355.91,1686641111.59375
184.81,1686641111.609375
79.02,1686641111.625
20.12,1686641111.640625
-27.24,1686641111.65625
-74.79,1686641111.671875
-113.95,1686641111.6875
-133.92,1686641111.703125
-130.83,1686641111.71875
-112.35,1686641111.734375
-103.03,1686641111.75
-110.85,1686641111.765625
-136.18,1686641111.78125
-177.02,1686641111.796875
-226.68,1686641111.8125
-270.11,1686641111.828125
-295.18,1686641111.84375
-298.39,1686641111.859375
-286.77,1686641111.875
-280.31,1686641111.890625
-285.25,1686641111.90625
-300.87,1686641111.921875
-324.52,1686641111.9375
-350.68,1686641111.953125
-370.07,1686641111.96875
-376.45,1686641111.984375
-369.27,1686641112.0
-354.20,1686641112.015625
-344.12,1686641112.03125
-342.48,1686641112.046875
-347.95,1686641112.0625
-358.08,1686641112.078125
-369.22,1686641112.09375
-377.02,1686641112.109375
-379.53,1686641112.125
-378.09,1686641112.140625
-376.77,1686641112.15625
-382.10,1686641112.171875
-394.31,1686641112.1875
-409.45,1686641112.203125
-421.51,1686641112.21875
-423.26,1686641112.234375
-408.18,1686641112.25
-373.14,1686641112.265625
-319.97,1686641112.28125
-255.21,1686641112.296875
-188.70,1686641112.3125
-128.34,1686641112.328125
-78.77,1686641112.34375
-41.24,1686641112.359375
-13.91,1686641112.375
5.97,1686641112.390625
20.84,1686641112.40625
31.85,1686641112.421875
38.98,1686641112.4375
41.53,1686641112.453125
38.58,1686641112.46875
29.24,1686641112.484375
12.69,1686641112.5
-11.68,1686641112.515625
-43.63,1686641112.53125
-81.39,1686641112.546875
-121.53,1686641112.5625
-159.73,1686641112.578125
-192.14,1686641112.59375
-216.50,1686641112.609375
-232.28,1686641112.625
-240.14,1686641112.640625
-241.13,1686641112.65625
-236.18,1686641112.671875
-226.08,1686641112.6875
-211.78,1686641112.703125
-194.65,1686641112.71875
-176.64,1686641112.734375
-160.03,1686641112.75
-146.80,1686641112.765625
-138.09,1686641112.78125
-133.67,1686641112.796875
-131.75,1686641112.8125
-129.30,1686641112.828125
-122.82,1686641112.84375
-109.52,1686641112.859375
-88.57,1686641112.875
-61.83,1686641112.890625
-33.34,1686641112.90625
-7.90,1686641112.921875
10.88,1686641112.9375
21.89,1686641112.953125
26.58,1686641112.96875
27.95,1686641112.984375
29.17,1686641113.0
32.63,1686641113.015625
39.61,1686641113.03125
50.49,1686641113.046875
65.03,1686641113.0625
82.30,1686641113.078125
100.52,1686641113.09375
116.96,1686641113.109375
128.22,1686641113.125
131.28,1686641113.140625
124.60,1686641113.15625
108.89,1686641113.171875
86.92,1686641113.1875
62.49,1686641113.203125
38.98,1686641113.21875
18.21,1686641113.234375
0.24,1686641113.25
-15.84,1686641113.265625
-30.98,1686641113.28125
-45.32,1686641113.296875
-58.19,1686641113.3125
-68.55,1686641113.328125
-75.71,1686641113.34375
-79.72,1686641113.359375
-81.20,1686641113.375
-80.90,1686641113.390625
-79.43,1686641113.40625
-77.10,1686641113.421875
-74.04,1686641113.4375
-70.33,1686641113.453125
-65.74,1686641113.46875
-59.54,1686641113.484375
-50.44,1686641113.5
-36.68,1686641113.515625
-16.28,1686641113.53125
12.14,1686641113.546875
48.42,1686641113.5625
89.77,1686641113.578125
130.13,1686641113.59375
160.78,1686641113.609375
172.15,1686641113.625
156.57,1686641113.640625
110.58,1686641113.65625
36.31,1686641113.671875
-59.05,1686641113.6875
-164.74,1686641113.703125
-268.50,1686641113.71875
-358.90,1686641113.734375
-427.31,1686641113.75
-469.39,1686641113.765625
-485.66,1686641113.78125
-481.03,1686641113.796875
-463.06,1686641113.8125
-439.59,1686641113.828125
-416.81,1686641113.84375
-398.41,1686641113.859375
-386.01,1686641113.875
-379.95,1686641113.890625
-379.74,1686641113.90625
-383.64,1686641113.921875
-388.15,1686641113.9375
-388.21,1686641113.953125
-378.64,1686641113.96875
-356.16,1686641113.984375
-320.79,1686641114.0
-275.73,1686641114.015625
-225.55,1686641114.03125
-174.01,1686641114.046875
-122.50,1686641114.0625
-70.08,1686641114.078125
-14.99,1686641114.09375
43.48,1686641114.109375
103.88,1686641114.125
162.72,1686641114.140625
215.69,1686641114.15625
259.28,1686641114.171875
291.74,1686641114.1875
313.29,1686641114.203125
325.43,1686641114.21875
330.10,1686641114.234375
329.15,1686641114.25
324.19,1686641114.265625
316.84,1686641114.28125
308.70,1686641114.296875
301.08,1686641114.3125
294.56,1686641114.328125
288.60,1686641114.34375
281.75,1686641114.359375
272.18,1686641114.375
258.55,1686641114.390625
240.59,1686641114.40625
219.22,1686641114.421875
196.32,1686641114.4375
174.24,1686641114.453125
155.30,1686641114.46875
141.37,1686641114.484375
133.51,1686641114.5
131.76,1686641114.515625
135.04,1686641114.53125
141.33,1686641114.546875
148.11,1686641114.5625
152.98,1686641114.578125
154.24,1686641114.59375
151.27,1686641114.609375
144.44,1686641114.625
134.76,1686641114.640625
123.28,1686641114.65625
110.64,1686641114.671875
96.93,1686641114.6875
81.87,1686641114.703125
65.27,1686641114.71875
47.38,1686641114.734375
29.04,1686641114.75
11.55,1686641114.765625
-3.78,1686641114.78125
-16.13,1686641114.796875
-25.57,1686641114.8125
-32.97,1686641114.828125
-39.64,1686641114.84375
-46.67,1686641114.859375
-54.44,1686641114.875
-62.32,1686641114.890625
-68.99,1686641114.90625
-72.94,1686641114.921875
-73.11,1686641114.9375
-69.22,1686641114.953125
-61.55,1686641114.96875
-50.40,1686641114.984375
-35.62,1686641115.0
-16.34,1686641115.015625
8.71,1686641115.03125
40.76,1686641115.046875
80.56,1686641115.0625
128.11,1686641115.078125
182.61,1686641115.09375
242.36,1686641115.109375
304.54,1686641115.125
365.22,1686641115.140625
419.68,1686641115.15625
463.30,1686641115.171875
492.67,1686641115.1875
506.44,1686641115.203125
505.27,1686641115.21875
490.83,1686641115.234375
464.41,1686641115.25
425.91,1686641115.265625
373.91,1686641115.28125
306.86,1686641115.296875
224.79,1686641115.3125
130.51,1686641115.328125
29.70,1686641115.34375
-70.19,1686641115.359375
-161.82,1686641115.375
-239.75,1686641115.390625
-301.71,1686641115.40625
-348.91,1686641115.421875
-385.60,1686641115.4375
-417.59,1686641115.453125
-450.13,1686641115.46875
-485.75,1686641115.484375
-522.76,1686641115.5
-555.50,1686641115.515625
-576.27,1686641115.53125
-578.44,1686641115.546875
-559.00,1686641115.5625
-519.62,1686641115.578125
-465.36,1686641115.59375
-402.15,1686641115.609375
-334.46,1686641115.625
-264.23,1686641115.640625
-191.46,1686641115.65625
-115.74,1686641115.671875
-37.66,1686641115.6875
40.61,1686641115.703125
115.65,1686641115.71875
183.52,1686641115.734375
240.49,1686641115.75
283.42,1686641115.765625
310.02,1686641115.78125
319.20,1686641115.796875
311.16,1686641115.8125
287.17,1686641115.828125
249.10,1686641115.84375
199.23,1686641115.859375
140.51,1686641115.875
77.33,1686641115.890625
15.76,1686641115.90625
-37.29,1686641115.921875
-75.96,1686641115.9375
-97.92,1686641115.953125
-105.66,1686641115.96875
-105.74,1686641115.984375
-106.13,1686641116.0
-112.86,1686641116.015625
-127.70,1686641116.03125
-148.06,1686641116.046875
-168.85,1686641116.0625
-185.23,1686641116.078125
-194.58,1686641116.09375
-196.87,1686641116.109375
-193.96,1686641116.125
-188.49,1686641116.140625
-183.11,1686641116.15625
-180.05,1686641116.171875
-180.74,1686641116.1875
-185.30,1686641116.203125
-192.31,1686641116.21875
-199.20,1686641116.234375
-203.37,1686641116.25
-203.52,1686641116.265625
-199.95,1686641116.28125
-193.73,1686641116.296875
-184.91,1686641116.3125
-171.22,1686641116.328125
-148.25,1686641116.34375
-111.45,1686641116.359375
-58.48,1686641116.375
9.40,1686641116.390625
87.78,1686641116.40625
170.91,1686641116.421875
253.53,1686641116.4375
331.68,1686641116.453125
402.16,1686641116.46875
461.48,1686641116.484375
505.43,1686641116.5
529.53,1686641116.515625
530.16,1686641116.53125
505.61,1686641116.546875
456.74,1686641116.5625
387.28,1686641116.578125
303.86,1686641116.59375
216.04,1686641116.609375
135.34,1686641116.625
73.29,1686641116.640625
38.51,1686641116.65625
34.11,1686641116.671875
56.58,1686641116.6875
96.98,1686641116.703125
144.05,1686641116.71875
187.76,1686641116.734375
221.92,1686641116.75
244.65,1686641116.765625
257.10,1686641116.78125
261.16,1686641116.796875
257.77,1686641116.8125
246.44,1686641116.828125
226.15,1686641116.84375
196.69,1686641116.859375
159.84,1686641116.875
119.40,1686641116.890625
80.20,1686641116.90625
46.31,1686641116.921875
19.13,1686641116.9375
-3.45,1686641116.953125
-26.45,1686641116.96875
-55.43,1686641116.984375
-93.56,1686641117.0
-139.16,1686641117.015625
-185.17,1686641117.03125
-220.95,1686641117.046875
-235.76,1686641117.0625
-222.65,1686641117.078125
-181.23,1686641117.09375
-118.15,1686641117.109375
-45.09,1686641117.125
24.96,1686641117.140625
81.68,1686641117.15625
120.14,1686641117.171875
141.19,1686641117.1875
149.89,1686641117.203125
152.62,1686641117.21875
154.32,1686641117.234375
156.89,1686641117.25
159.36,1686641117.265625
159.18,1686641117.28125
153.99,1686641117.296875
142.58,1686641117.3125
125.01,1686641117.328125
101.85,1686641117.34375
73.56,1686641117.359375
40.59,1686641117.375
4.00,1686641117.390625
-33.88,1686641117.40625
-69.45,1686641117.421875
-98.74,1686641117.4375
-118.65,1686641117.453125
-128.05,1686641117.46875
-128.17,1686641117.484375
-121.97,1686641117.5
-113.07,1686641117.515625
-104.77,1686641117.53125
-99.36,1686641117.546875
-98.00,1686641117.5625
-100.94,1686641117.578125
-107.63,1686641117.59375
-116.82,1686641117.609375
-126.69,1686641117.625
-135.00,1686641117.640625
-139.63,1686641117.65625
-139.23,1686641117.671875
-133.69,1686641117.6875
-124.11,1686641117.703125
-112.15,1686641117.71875
-99.27,1686641117.734375
-86.19,1686641117.75
-72.88,1686641117.765625
-59.18,1686641117.78125
-45.40,1686641117.796875
-32.63,1686641117.8125
-22.48,1686641117.828125
-16.33,1686641117.84375
-14.65,1686641117.859375
-16.77,1686641117.875
-21.23,1686641117.890625
-26.49,1686641117.90625
-31.58,1686641117.921875
-36.21,1686641117.9375
-40.46,1686641117.953125
-44.23,1686641117.96875
-46.92,1686641117.984375
-47.50,1686641118.0
-45.01,1686641118.015625
-39.06,1686641118.03125
-30.11,1686641118.046875
-19.36,1686641118.0625
-8.43,1686641118.078125
1.10,1686641118.09375
7.94,1686641118.109375
11.18,1686641118.125
10.28,1686641118.140625
5.18,1686641118.15625
-3.54,1686641118.171875
-14.48,1686641118.1875
-25.57,1686641118.203125
-34.41,1686641118.21875
-38.98,1686641118.234375
-38.31,1686641118.25
-32.82,1686641118.265625
-24.18,1686641118.28125
-14.64,1686641118.296875
-6.41,1686641118.3125
-1.00,1686641118.328125
0.90,1686641118.34375
-0.67,1686641118.359375
-5.15,1686641118.375
-11.73,1686641118.390625
-19.45,1686641118.40625
-27.29,1686641118.421875
-34.26,1686641118.4375
-39.57,1686641118.453125
-42.83,1686641118.46875
-44.15,1686641118.484375
-44.16,1686641118.5
-43.81,1686641118.515625
-43.99,1686641118.53125
-45.28,1686641118.546875
-47.59,1686641118.5625
-50.32,1686641118.578125
-52.63,1686641118.59375
-53.92,1686641118.609375
-54.19,1686641118.625
-54.13,1686641118.640625
-54.79,1686641118.65625
-57.00,1686641118.671875
-60.76,1686641118.6875
-64.95,1686641118.703125
-67.69,1686641118.71875
-66.92,1686641118.734375
-61.14,1686641118.75
-49.96,1686641118.765625
-34.14,1686641118.78125
-15.37,1686641118.796875
4.27,1686641118.8125
22.77,1686641118.828125
38.64,1686641118.84375
51.00,1686641118.859375
59.58,1686641118.875
64.54,1686641118.890625
66.17,1686641118.90625
64.69,1686641118.921875
60.22,1686641118.9375
52.88,1686641118.953125
42.98,1686641118.96875
31.23,1686641118.984375
18.75,1686641119.0
6.95,1686641119.015625
-2.86,1686641119.03125
-9.82,1686641119.046875
-13.75,1686641119.0625
-15.15,1686641119.078125
-15.00,1686641119.09375
-14.44,1686641119.109375
-14.45,1686641119.125
-15.77,1686641119.140625
-18.84,1686641119.15625
-23.87,1686641119.171875
-30.77,1686641119.1875
-39.11,1686641119.203125
-47.94,1686641119.21875
-55.79,1686641119.234375
-60.91,1686641119.25
-61.71,1686641119.265625
-57.23,1686641119.28125
-47.49,1686641119.296875
-33.54,1686641119.3125
-17.22,1686641119.328125
-0.61,1686641119.34375
14.45,1686641119.359375
26.68,1686641119.375
35.42,1686641119.390625
40.55,1686641119.40625
42.33,1686641119.421875
41.18,1686641119.4375
37.70,1686641119.453125
32.52,1686641119.46875
26.30,1686641119.484375
19.66,1686641119.5
13.12,1686641119.515625
7.05,1686641119.53125
1.71,1686641119.546875
-2.69,1686641119.5625
-6.01,1686641119.578125
-8.18,1686641119.59375
-9.31,1686641119.609375
-9.74,1686641119.625
-10.08,1686641119.640625
-11.13,1686641119.65625
-13.68,1686641119.671875
-18.25,1686641119.6875
-24.85,1686641119.703125
-32.85,1686641119.71875
-40.92,1686641119.734375
-47.35,1686641119.75
-50.44,1686641119.765625
-49.01,1686641119.78125
-42.74,1686641119.796875
-32.26,1686641119.8125
-19.03,1686641119.828125
-4.88,1686641119.84375
8.45,1686641119.859375
19.60,1686641119.875
27.87,1686641119.890625
33.14,1686641119.90625
35.77,1686641119.921875
36.46,1686641119.9375
35.88,1686641119.953125
34.52,1686641119.96875
32.57,1686641119.984375
29.93,1686641120.0
26.45,1686641120.015625
22.11,1686641120.03125
17.22,1686641120.046875
12.33,1686641120.0625
8.11,1686641120.078125
5.03,1686641120.09375
3.25,1686641120.109375
2.56,1686641120.125
2.52,1686641120.140625
2.58,1686641120.15625
2.15,1686641120.171875
0.66,1686641120.1875
-2.37,1686641120.203125
-7.14,1686641120.21875
-13.36,1686641120.234375
-20.05,1686641120.25
-25.65,1686641120.265625
-28.38,1686641120.28125
-26.77,1686641120.296875
-20.18,1686641120.3125
-9.04,1686641120.328125
5.23,1686641120.34375
20.68,1686641120.359375
35.31,1686641120.375
47.63,1686641120.390625
56.81,1686641120.40625
62.66,1686641120.421875
65.52,1686641120.4375
65.91,1686641120.453125
64.43,1686641120.46875
61.56,1686641120.484375
57.66,1686641120.5
53.03,1686641120.515625
47.92,1686641120.53125
42.62,1686641120.546875
37.48,1686641120.5625
32.84,1686641120.578125
28.95,1686641120.59375
25.84,1686641120.609375
23.27,1686641120.625
20.86,1686641120.640625
18.18,1686641120.65625
14.90,1686641120.671875
10.79,1686641120.6875
5.70,1686641120.703125
-0.52,1686641120.71875
-8.00,1686641120.734375
-16.68,1686641120.75
-26.09,1686641120.765625
-35.15,1686641120.78125
-42.26,1686641120.796875
-45.73,1686641120.8125
-44.31,1686641120.828125
-37.70,1686641120.84375
-26.71,1686641120.859375
-13.10,1686641120.875
1.04,1686641120.890625
13.81,1686641120.90625
23.97,1686641120.921875
30.96,1686641120.9375
34.80,1686641120.953125
35.69,1686641120.96875
33.94,1686641120.984375
29.89,1686641121.0
23.98,1686641121.015625
16.89,1686641121.03125
9.43,1686641121.046875
2.48,1686641121.0625
-3.33,1686641121.078125
-7.64,1686641121.09375
-10.39,1686641121.109375
-11.77,1686641121.125
-12.00,1686641121.140625
-11.37,1686641121.15625
-10.21,1686641121.171875
-8.99,1686641121.1875
-8.29,1686641121.203125
-8.78,1686641121.21875
-11.02,1686641121.234375
-15.31,1686641121.25
-21.46,1686641121.265625
-28.72,1686641121.28125
-35.88,1686641121.296875
-41.40,1686641121.3125
-43.80,1686641121.328125
-42.03,1686641121.34375
-35.73,1686641121.359375
-25.37,1686641121.375
-12.12,1686641121.390625
2.39,1686641121.40625
16.50,1686641121.421875
28.68,1686641121.4375
37.80,1686641121.453125
43.25,1686641121.46875
44.94,1686641121.484375
43.30,1686641121.5
39.22,1686641121.515625
33.76,1686641121.53125
27.92,1686641121.546875
22.33,1686641121.5625
17.28,1686641121.578125
12.77,1686641121.59375
8.76,1686641121.609375
5.41,1686641121.625
2.95,1686641121.640625
1.63,1686641121.65625
1.42,1686641121.671875
1.96,1686641121.6875
2.65,1686641121.703125
2.78,1686641121.71875
1.78,1686641121.734375
-0.76,1686641121.75
-5.11,1686641121.765625
-11.32,1686641121.78125
-19.19,1686641121.796875
-27.96,1686641121.8125
-36.30,1686641121.828125
-42.40,1686641121.84375
-44.42,1686641121.859375
-41.11,1686641121.875
-32.26,1686641121.890625
-18.89,1686641121.90625
-2.99,1686641121.921875
13.06,1686641121.9375
27.04,1686641121.953125
37.45,1686641121.96875
43.66,1686641121.984375
45.83,1686641122.0
44.64,1686641122.015625
40.97,1686641122.03125
35.69,1686641122.046875
29.54,1686641122.0625
23.15,1686641122.078125
17.08,1686641122.09375
11.82,1686641122.109375
7.79,1686641122.125
5.21,1686641122.140625
4.04,1686641122.15625
4.01,1686641122.171875
4.66,1686641122.1875
5.56,1686641122.203125
6.27,1686641122.21875
6.42,1686641122.234375
5.65,1686641122.25
3.55,1686641122.265625
-0.17,1686641122.28125
-5.69,1686641122.296875
-12.75,1686641122.3125
-20.61,1686641122.328125
-28.01,1686641122.34375
-33.40,1686641122.359375
-35.32,1686641122.375
-32.83,1686641122.390625
-25.83,1686641122.40625
-15.13,1686641122.421875
-2.29,1686641122.4375
10.87,1686641122.453125
22.68,1686641122.46875
31.96,1686641122.484375
38.20,1686641122.5
41.35,1686641122.515625
41.73,1686641122.53125
39.83,1686641122.546875
36.16,1686641122.5625
31.21,1686641122.578125
25.49,1686641122.59375
19.50,1686641122.609375
13.74,1686641122.625
8.63,1686641122.640625
4.45,1686641122.65625
1.33,1686641122.671875
-0.85,1686641122.6875
-2.33,1686641122.703125
-3.48,1686641122.71875
-4.61,1686641122.734375
-6.03,1686641122.75
-7.96,1686641122.765625
-10.61,1686641122.78125
-14.25,1686641122.796875
-18.98,1686641122.8125
-24.71,1686641122.828125
-30.90,1686641122.84375
-36.49,1686641122.859375
-40.12,1686641122.875
-40.45,1686641122.890625
-36.62,1686641122.90625
-28.57,1686641122.921875
-17.18,1686641122.9375
-3.92,1686641122.953125
9.49,1686641122.96875
21.57,1686641122.984375
31.28,1686641123.0
38.11,1686641123.015625
41.92,1686641123.03125
42.80,1686641123.046875
41.02,1686641123.0625
36.95,1686641123.078125
31.15,1686641123.09375
24.25,1686641123.109375
16.91,1686641123.125
9.67,1686641123.140625
2.90,1686641123.15625
-3.19,1686641123.171875
-8.44,1686641123.1875
-12.74,1686641123.203125
-16.03,1686641123.21875
-18.33,1686641123.234375
-19.84,1686641123.25
-21.01,1686641123.265625
-22.37,1686641123.28125
-24.56,1686641123.296875
-28.03,1686641123.3125
-32.93,1686641123.328125
-38.91,1686641123.34375
-45.12,1686641123.359375
-50.20,1686641123.375
-52.62,1686641123.390625
-51.10,1686641123.40625
-45.04,1686641123.421875
-34.79,1686641123.4375
-21.63,1686641123.453125
-7.37,1686641123.46875
6.11,1686641123.484375
17.33,1686641123.5
25.40,1686641123.515625
29.96,1686641123.53125
30.98,1686641123.546875
28.73,1686641123.5625
23.76,1686641123.578125
16.96,1686641123.59375
9.48,1686641123.609375
2.57,1686641123.625
-2.77,1686641123.640625
-6.06,1686641123.65625
-7.41,1686641123.671875
-7.36,1686641123.6875
-6.58,1686641123.703125
-5.61,1686641123.71875
-4.70,1686641123.734375
-3.84,1686641123.75
-3.00,1686641123.765625
-2.24,1686641123.78125
-1.86,1686641123.796875
-2.33,1686641123.8125
-4.14,1686641123.828125
-7.53,1686641123.84375
-12.33,1686641123.859375
-17.85,1686641123.875
-22.96,1686641123.890625
-26.45,1686641123.90625
-27.24,1686641123.921875
-24.75,1686641123.9375
-18.97,1686641123.953125
-10.46,1686641123.96875
-0.07,1686641123.984375
11.20,1686641124.0
22.38,1686641124.015625
32.58,1686641124.03125
41.00,1686641124.046875
46.98,1686641124.0625
50.01,1686641124.078125
49.90,1686641124.09375
46.88,1686641124.109375
41.56,1686641124.125
34.86,1686641124.140625
27.83,1686641124.15625
21.37,1686641124.171875
16.09,1686641124.1875
12.17,1686641124.203125
9.45,1686641124.21875
7.59,1686641124.234375
6.19,1686641124.25
5.04,1686641124.265625
4.03,1686641124.28125
3.10,1686641124.296875
2.06,1686641124.3125
0.54,1686641124.328125
-1.98,1686641124.34375
-5.99,1686641124.359375
-11.62,1686641124.375
-18.45,1686641124.390625
-25.51,1686641124.40625
-31.40,1686641124.421875
-34.64,1686641124.4375
-34.08,1686641124.453125
-29.24,1686641124.46875
-20.48,1686641124.484375
-8.94,1686641124.5
3.81,1686641124.515625
16.07,1686641124.53125
26.49,1686641124.546875
34.25,1686641124.5625
39.08,1686641124.578125
41.07,1686641124.59375
40.54,1686641124.609375
37.84,1686641124.625
33.36,1686641124.640625
27.62,1686641124.65625
21.22,1686641124.671875
14.86,1686641124.6875
9.19,1686641124.703125
4.64,1686641124.71875
1.37,1686641124.734375
-0.73,1686641124.75
-1.90,1686641124.765625
-2.42,1686641124.78125
-2.51,1686641124.796875
-2.37,1686641124.8125
-2.24,1686641124.828125
-2.46,1686641124.84375
-3.43,1686641124.859375
-5.50,1686641124.875
-8.82,1686641124.890625
-13.17,1686641124.90625
-17.85,1686641124.921875
-21.83,1686641124.9375
-23.96,1686641124.953125
-23.24,1686641124.96875
-19.17,1686641124.984375
-11.84,1686641125.0
-1.90,1686641125.015625
9.55,1686641125.03125
21.22,1686641125.046875
31.78,1686641125.0625
40.05,1686641125.078125
45.20,1686641125.09375
46.85,1686641125.109375
45.16,1686641125.125
40.72,1686641125.140625
34.39,1686641125.15625
27.11,1686641125.171875
19.66,1686641125.1875
12.70,1686641125.203125
6.74,1686641125.21875
2.18,1686641125.234375
-0.78,1686641125.25
-2.16,1686641125.265625
-2.35,1686641125.28125
-1.95,1686641125.296875
-1.62,1686641125.3125
-1.91,1686641125.328125
-3.03,1686641125.34375
-5.03,1686641125.359375
-7.85,1686641125.375
-11.49,1686641125.390625
-15.97,1686641125.40625
-21.12,1686641125.421875
-26.42,1686641125.4375
-30.90,1686641125.453125
-33.31,1686641125.46875
-32.57,1686641125.484375
-28.13,1686641125.5
-20.27,1686641125.515625
-10.05,1686641125.53125
1.01,1686641125.546875
11.40,1686641125.5625
19.94,1686641125.578125
25.99,1686641125.59375
29.34,1686641125.609375
30.10,1686641125.625
28.51,1686641125.640625
24.93,1686641125.65625
19.78,1686641125.671875
13.64,1686641125.6875
7.17,1686641125.703125
1.03,1686641125.71875
-4.20,1686641125.734375
-8.16,1686641125.75
-10.73,1686641125.765625
-11.98,1686641125.78125
-12.18,1686641125.796875
-11.69,1686641125.8125
-10.99,1686641125.828125
-10.61,1686641125.84375
-11.08,1686641125.859375
-12.79,1686641125.875
-15.95,1686641125.890625
-20.44,1686641125.90625
-25.82,1686641125.921875
-31.34,1686641125.9375
-36.03,1686641125.953125
-38.84,1686641125.96875
-38.80,1686641125.984375
-35.26,1686641126.0
-28.01,1686641126.015625
-17.49,1686641126.03125
-4.84,1686641126.046875
8.35,1686641126.0625
20.36,1686641126.078125
29.78,1686641126.09375
35.82,1686641126.109375
38.40,1686641126.125
38.00,1686641126.140625
35.31,1686641126.15625
31.04,1686641126.171875
25.74,1686641126.1875
19.89,1686641126.203125
13.89,1686641126.21875
8.19,1686641126.234375
3.19,1686641126.25
-0.82,1686641126.265625
-3.73,1686641126.28125
-5.58,1686641126.296875
-6.59,1686641126.3125
-7.04,1686641126.328125
-7.23,1686641126.34375
-7.49,1686641126.359375
-8.13,1686641126.375
-9.46,1686641126.390625
-11.75,1686641126.40625
-15.11,1686641126.421875
-19.39,1686641126.4375
-24.07,1686641126.453125
-28.24,1686641126.46875
-30.73,1686641126.484375
-30.42,1686641126.5
-26.61,1686641126.515625
-19.28,1686641126.53125
-9.16,1686641126.546875
2.48,1686641126.5625
14.16,1686641126.578125
24.51,1686641126.59375
32.58,1686641126.609375
37.84,1686641126.625
40.13,1686641126.640625
39.62,1686641126.65625
36.68,1686641126.671875
31.79,1686641126.6875
25.56,1686641126.703125
18.54,1686641126.71875
11.29,1686641126.734375
4.29,1686641126.75
-2.03,1686641126.765625
-7.38,1686641126.78125
-11.59,1686641126.796875
-14.65,1686641126.8125
-16.75,1686641126.828125
-18.18,1686641126.84375
-19.23,1686641126.859375
-20.19,1686641126.875
-21.27,1686641126.890625
-22.64,1686641126.90625
-24.53,1686641126.921875
-27.12,1686641126.9375
-30.49,1686641126.953125
-34.45,1686641126.96875
-38.37,1686641126.984375
-41.23,1686641127.0
-41.81,1686641127.015625
-39.10,1686641127.03125
-32.65,1686641127.046875
-22.82,1686641127.0625
-10.74,1686641127.078125
2.02,1686641127.09375
13.84,1686641127.109375
23.50,1686641127.125
30.27,1686641127.140625
34.01,1686641127.15625
34.97,1686641127.171875
33.58,1686641127.1875
30.41,1686641127.203125
26.07,1686641127.21875
21.17,1686641127.234375
16.31,1686641127.25
11.98,1686641127.265625
8.52,1686641127.28125
6.08,1686641127.296875
4.56,1686641127.3125
3.70,1686641127.328125
3.09,1686641127.34375
2.33,1686641127.359375
1.12,1686641127.375
-0.67,1686641127.390625
-3.04,1686641127.40625
-5.93,1686641127.421875
-9.36,1686641127.4375
-13.42,1686641127.453125
-18.17,1686641127.46875
-23.39,1686641127.484375
-28.41,1686641127.5
-32.10,1686641127.515625
-33.13,1686641127.53125
-30.42,1686641127.546875
-23.63,1686641127.5625
-13.37,1686641127.578125
-1.08,1686641127.59375
11.42,1686641127.609375
22.42,1686641127.625
30.73,1686641127.640625
35.82,1686641127.65625
37.69,1686641127.671875
36.69,1686641127.6875
33.28,1686641127.703125
27.99,1686641127.71875
21.48,1686641127.734375
14.43,1686641127.75
7.62,1686641127.765625
1.63,1686641127.78125
-3.16,1686641127.796875
-6.68,1686641127.8125
-9.13,1686641127.828125
-10.80,1686641127.84375
-11.97,1686641127.859375
-12.85,1686641127.875
-13.60,1686641127.890625
-14.40,1686641127.90625
-15.54,1686641127.921875
-17.40,1686641127.9375
-20.36,1686641127.953125
-24.64,1686641127.96875
-30.11,1686641127.984375
-36.10,1686641128.0
-41.40,1686641128.015625
-44.50,1686641128.03125
-43.97,1686641128.046875
-38.92,1686641128.0625
-29.32,1686641128.078125
-16.09,1686641128.09375
-0.88,1686641128.109375
14.42,1686641128.125
28.04,1686641128.140625
38.70,1686641128.15625
45.71,1686641128.171875
48.85,1686641128.1875
48.32,1686641128.203125
44.61,1686641128.21875
38.50,1686641128.234375
30.95,1686641128.25
23.01,1686641128.265625
15.60,1686641128.28125
9.36,1686641128.296875
4.59,1686641128.3125
1.24,1686641128.328125
-0.92,1686641128.34375
-2.23,1686641128.359375
-3.03,1686641128.375
-3.62,1686641128.390625
-4.28,1686641128.40625
-5.25,1686641128.421875
-6.77,1686641128.4375
-9.06,1686641128.453125
-12.35,1686641128.46875
-16.79,1686641128.484375
-22.32,1686641128.5
-28.42,1686641128.515625
-34.18,1686641128.53125
-38.27,1686641128.546875
-39.30,1686641128.5625
-36.31,1686641128.578125
-29.06,1686641128.59375
-18.25,1686641128.609375
-5.30,1686641128.625
7.98,1686641128.640625
19.86,1686641128.65625
29.06,1686641128.671875
34.90,1686641128.6875
37.34,1686641128.703125
36.72,1686641128.71875
33.65,1686641128.734375
28.78,1686641128.75
22.74,1686641128.765625
16.15,1686641128.78125
9.61,1686641128.796875
3.64,1686641128.8125
-1.36,1686641128.828125
-5.20,1686641128.84375
-7.91,1686641128.859375
-9.67,1686641128.875
-10.70,1686641128.890625
-11.20,1686641128.90625
-11.34,1686641128.921875
-11.37,1686641128.9375
-11.70,1686641128.953125
-12.95,1686641128.96875
-15.79,1686641128.984375
-20.73,1686641129.0
-27.74,1686641129.015625
-36.13,1686641129.03125
-44.53,1686641129.046875
-51.21,1686641129.0625
-54.48,1686641129.078125
-53.17,1686641129.09375
-46.98,1686641129.109375
-36.51,1686641129.125
-23.13,1686641129.140625
-8.54,1686641129.15625
5.52,1686641129.171875
17.69,1686641129.1875
26.99,1686641129.203125
32.88,1686641129.21875
35.17,1686641129.234375
34.03,1686641129.25
29.88,1686641129.265625
23.48,1686641129.28125
15.75,1686641129.296875
7.64,1686641129.3125
-0.06,1686641129.328125
-6.89,1686641129.34375
-12.66,1686641129.359375
-17.32,1686641129.375
-20.86,1686641129.390625
-23.17,1686641129.40625
-24.11,1686641129.421875
-23.67,1686641129.4375
-22.07,1686641129.453125
-19.85,1686641129.46875
-17.82,1686641129.484375
-16.89,1686641129.5
-17.82,1686641129.515625
-21.02,1686641129.53125
-26.34,1686641129.546875
-32.96,1686641129.5625
-39.50,1686641129.578125
-44.20,1686641129.59375
-45.41,1686641129.609375
-42.00,1686641129.625
-33.74,1686641129.640625
-21.36,1686641129.65625
-6.40,1686641129.671875
9.23,1686641129.6875
23.68,1686641129.703125
35.55,1686641129.71875
43.95,1686641129.734375
48.57,1686641129.75
49.54,1686641129.765625
47.33,1686641129.78125
42.66,1686641129.796875
36.40,1686641129.8125
29.44,1686641129.828125
22.57,1686641129.84375
16.38,1686641129.859375
11.20,1686641129.875
7.13,1686641129.890625
4.10,1686641129.90625
1.95,1686641129.921875
0.54,1686641129.9375
-0.27,1686641129.953125
-0.66,1686641129.96875
-0.90,1686641129.984375
-1.38,1686641130.0
-2.59,1686641130.015625
-4.97,1686641130.03125
-8.81,1686641130.046875
-14.01,1686641130.0625
-20.03,1686641130.078125
-25.89,1686641130.09375
-30.28,1686641130.109375
-31.89,1686641130.125
-29.67,1686641130.140625
-23.22,1686641130.15625
-12.90,1686641130.171875
0.13,1686641130.1875
14.22,1686641130.203125
27.54,1686641130.21875
38.52,1686641130.234375
46.14,1686641130.25
50.03,1686641130.265625
50.35,1686641130.28125
47.67,1686641130.296875
42.70,1686641130.3125
36.23,1686641130.328125
28.99,1686641130.34375
21.66,1686641130.359375
14.84,1686641130.375
8.94,1686641130.390625
4.17,1686641130.40625
0.57,1686641130.421875
-2.01,1686641130.4375
-3.78,1686641130.453125
-4.96,1686641130.46875
-5.87,1686641130.484375
-6.82,1686641130.5
-8.20,1686641130.515625
-10.44,1686641130.53125
-13.89,1686641130.546875
-18.63,1686641130.5625
-24.33,1686641130.578125
-30.17,1686641130.59375
-34.91,1686641130.609375
-37.16,1686641130.625
-35.74,1686641130.640625
-30.04,1686641130.65625
-20.24,1686641130.671875
-7.31,1686641130.6875
7.23,1686641130.703125
21.66,1686641130.71875
34.47,1686641130.734375
44.55,1686641130.75
51.34,1686641130.765625
54.72,1686641130.78125
54.88,1686641130.796875
52.27,1686641130.8125
47.44,1686641130.828125
41.00,1686641130.84375
33.60,1686641130.859375
25.85,1686641130.875
18.28,1686641130.890625
11.38,1686641130.90625
5.52,1686641130.921875
0.89,1686641130.9375
-2.53,1686641130.953125
-5.01,1686641130.96875
-7.09,1686641130.984375
-9.36,1686641131.0
-12.36,1686641131.015625
-16.39,1686641131.03125
-21.45,1686641131.046875
-27.38,1686641131.0625
-33.88,1686641131.078125
-40.62,1686641131.09375
-47.12,1686641131.109375
-52.70,1686641131.125
-56.34,1686641131.140625
-56.95,1686641131.15625
-53.60,1686641131.171875
-45.97,1686641131.1875
-34.56,1686641131.203125
-20.72,1686641131.21875
-6.21,1686641131.234375
7.20,1686641131.25
18.20,1686641131.265625
26.05,1686641131.28125
30.61,1686641131.296875
32.16,1686641131.3125
31.38,1686641131.328125
29.32,1686641131.34375
27.42,1686641131.359375
27.28,1686641131.375
30.38,1686641131.390625
37.58,1686641131.40625
48.86,1686641131.421875
63.16,1686641131.4375
78.54,1686641131.453125
92.61,1686641131.46875
103.06,1686641131.484375
108.08,1686641131.5
106.75,1686641131.515625
99.22,1686641131.53125
86.65,1686641131.546875
70.89,1686641131.5625
53.87,1686641131.578125
37.06,1686641131.59375
21.21,1686641131.609375
6.58,1686641131.625
-6.51,1686641131.640625
-17.25,1686641131.65625
-24.35,1686641131.671875
-26.66,1686641131.6875
-23.77,1686641131.703125
-16.52,1686641131.71875
-6.73,1686641131.734375
3.41,1686641131.75
12.02,1686641131.765625
18.02,1686641131.78125
20.99,1686641131.796875
20.83,1686641131.8125
17.55,1686641131.828125
11.27,1686641131.84375
2.43,1686641131.859375
-7.88,1686641131.875
-18.07,1686641131.890625
-26.46,1686641131.90625
-31.84,1686641131.921875
-33.91,1686641131.9375
-33.34,1686641131.953125
-31.42,1686641131.96875
-29.38,1686641131.984375
-27.89,1686641132.0
-26.63,1686641132.015625
-24.51,1686641132.03125
-20.11,1686641132.046875
-12.54,1686641132.0625
-2.09,1686641132.078125
9.63,1686641132.09375
20.18,1686641132.109375
27.08,1686641132.125
28.78,1686641132.140625
25.08,1686641132.15625
16.99,1686641132.171875
6.12,1686641132.1875
-5.81,1686641132.203125
-17.29,1686641132.21875
-26.82,1686641132.234375
-32.69,1686641132.25
-33.18,1686641132.265625
-27.32,1686641132.28125
-15.84,1686641132.296875
-1.71,1686641132.3125
10.52,1686641132.328125
16.26,1686641132.34375
12.77,1686641132.359375
0.35,1686641132.375
-17.71,1686641132.390625
-36.40,1686641132.40625
-50.85,1686641132.421875
-57.83,1686641132.4375
-56.42,1686641132.453125
-47.89,1686641132.46875
-35.26,1686641132.484375
-22.71,1686641132.5
-14.82,1686641132.515625
-15.71,1686641132.53125
-27.82,1686641132.546875
-50.77,1686641132.5625
-80.81,1686641132.578125
-111.46,1686641132.59375
-135.22,1686641132.609375
-145.75,1686641132.625
-139.69,1686641132.640625
-117.49,1686641132.65625
-82.92,1686641132.671875
-41.88,1686641132.6875
-0.70,1686641132.703125
35.33,1686641132.71875
62.92,1686641132.734375
81.17,1686641132.75
91.45,1686641132.765625
96.60,1686641132.78125
99.83,1686641132.796875
103.24,1686641132.8125
106.89,1686641132.828125
108.45,1686641132.84375
104.06,1686641132.859375
89.99,1686641132.875
64.40,1686641132.890625
28.48,1686641132.90625
-13.71,1686641132.921875
-56.56,1686641132.9375
-94.62,1686641132.953125
-123.99,1686641132.96875
-142.86,1686641132.984375
-151.16,1686641133.0
-149.75,1686641133.015625
-139.81,1686641133.03125
-122.72,1686641133.046875
-100.30,1686641133.0625
-74.92,1686641133.078125
-49.24,1686641133.09375
-25.47,1686641133.109375
-4.69,1686641133.125
13.45,1686641133.140625
30.21,1686641133.15625
46.85,1686641133.171875
63.90,1686641133.1875
80.94,1686641133.203125
97.16,1686641133.21875
111.99,1686641133.234375
125.42,1686641133.25
137.69,1686641133.265625
148.54,1686641133.28125
156.47,1686641133.296875
158.92,1686641133.3125
153.38,1686641133.328125
139.10,1686641133.34375
118.17,1686641133.359375
95.49,1686641133.375
77.02,1686641133.390625
67.32,1686641133.40625
67.41,1686641133.421875
74.23,1686641133.4375
81.95,1686641133.453125
84.49,1686641133.46875
77.99,1686641133.484375
61.92,1686641133.5
38.63,1686641133.515625
11.72,1686641133.53125
-15.48,1686641133.546875
-40.56,1686641133.5625
-61.69,1686641133.578125
-77.03,1686641133.59375
-84.64,1686641133.609375
-83.23,1686641133.625
-73.14,1686641133.640625
-56.78,1686641133.65625
-37.90,1686641133.671875
-20.14,1686641133.6875
-5.71,1686641133.703125
5.33,1686641133.71875
14.50,1686641133.734375
24.07,1686641133.75
36.11,1686641133.765625
51.96,1686641133.78125
72.07,1686641133.796875
95.84,1686641133.8125
121.64,1686641133.828125
147.02,1686641133.84375
169.37,1686641133.859375
186.77,1686641133.875
198.52,1686641133.890625
205.12,1686641133.90625
207.42,1686641133.921875
205.70,1686641133.9375
199.20,1686641133.953125
186.64,1686641133.96875
167.12,1686641133.984375
141.06,1686641134.0
110.24,1686641134.015625
77.21,1686641134.03125
44.36,1686641134.046875
13.32,1686641134.0625
-15.12,1686641134.078125
-40.81,1686641134.09375
-63.95,1686641134.109375
-84.97,1686641134.125
-104.62,1686641134.140625
-123.77,1686641134.15625
-143.12,1686641134.171875
-162.65,1686641134.1875
-181.31,1686641134.203125
-197.16,1686641134.21875
-207.86,1686641134.234375
-211.53,1686641134.25
-207.46,1686641134.265625
-196.34,1686641134.28125
-180.11,1686641134.296875
-161.39,1686641134.3125
-142.84,1686641134.328125
-126.51,1686641134.34375
-113.72,1686641134.359375
-104.96,1686641134.375
-100.07,1686641134.390625
-98.48,1686641134.40625
-99.40,1686641134.421875
-101.87,1686641134.4375
-104.93,1686641134.453125
-107.71,1686641134.46875
-109.59,1686641134.484375
-110.20,1686641134.5
-109.55,1686641134.515625
-107.78,1686641134.53125
-105.23,1686641134.546875
-102.19,1686641134.5625
-98.97,1686641134.578125
-95.85,1686641134.59375
-93.13,1686641134.609375
-91.10,1686641134.625
-90.11,1686641134.640625
-90.36,1686641134.65625
-91.81,1686641134.671875
-93.90,1686641134.6875
-95.54,1686641134.703125
-95.27,1686641134.71875
-91.59,1686641134.734375
-83.54,1686641134.75
-71.11,1686641134.765625
-55.28,1686641134.78125
-37.80,1686641134.796875
-20.68,1686641134.8125
-5.62,1686641134.828125
6.23,1686641134.84375
14.33,1686641134.859375
18.50,1686641134.875
18.80,1686641134.890625
15.37,1686641134.90625
8.59,1686641134.921875
-0.87,1686641134.9375
-11.94,1686641134.953125
-23.21,1686641134.96875
-33.08,1686641134.984375
-40.13,1686641135.0
-43.36,1686641135.015625
-42.48,1686641135.03125
-38.06,1686641135.046875
-31.38,1686641135.0625
-24.16,1686641135.078125
-17.90,1686641135.09375
-13.30,1686641135.109375
-9.72,1686641135.125
-5.02,1686641135.140625
4.10,1686641135.15625
21.31,1686641135.171875
49.55,1686641135.1875
90.05,1686641135.203125
141.51,1686641135.21875
200.00,1686641135.234375
259.56,1686641135.25
313.48,1686641135.265625
356.03,1686641135.28125
383.90,1686641135.296875
396.96,1686641135.3125
397.61,1686641135.328125
389.32,1686641135.34375
374.97,1686641135.359375
355.74,1686641135.375
331.26,1686641135.390625
300.69,1686641135.40625
264.01,1686641135.421875
222.69,1686641135.4375
179.46,1686641135.453125
137.19,1686641135.46875
98.01,1686641135.484375
62.88,1686641135.5
32.05,1686641135.515625
5.63,1686641135.53125
-16.13,1686641135.546875
-33.20,1686641135.5625
-46.37,1686641135.578125
-57.40,1686641135.59375
-68.55,1686641135.609375
-81.53,1686641135.625
-96.52,1686641135.640625
-111.90,1686641135.65625
-124.94,1686641135.671875
-132.88,1686641135.6875
-134.01,1686641135.703125
-128.08,1686641135.71875
-116.16,1686641135.734375
-99.99,1686641135.75
-81.49,1686641135.765625
-62.53,1686641135.78125
-44.83,1686641135.796875
-29.82,1686641135.8125
-18.46,1686641135.828125
-11.08,1686641135.84375
-7.46,1686641135.859375
-7.12,1686641135.875
-9.79,1686641135.890625
-15.47,1686641135.90625
-24.28,1686641135.921875
-35.94,1686641135.9375
-49.44,1686641135.953125
-63.16,1686641135.96875
-75.40,1686641135.984375
-85.06,1686641136.0
-91.98,1686641136.015625
-96.96,1686641136.03125
-101.21,1686641136.046875
-105.84,1686641136.0625
-111.65,1686641136.078125
-119.01,1686641136.09375
-128.10,1686641136.109375
-138.87,1686641136.125
-150.92,1686641136.140625
-163.22,1686641136.15625
-174.21,1686641136.171875
-182.04,1686641136.1875
-185.26,1686641136.203125
-183.22,1686641136.21875
-176.42,1686641136.234375
-166.24,1686641136.25
-154.47,1686641136.265625
-142.87,1686641136.28125
-132.88,1686641136.296875
-125.54,1686641136.3125
-121.41,1686641136.328125
-120.53,1686641136.34375
-122.31,1686641136.359375
-125.53,1686641136.375
-128.52,1686641136.390625
-129.52,1686641136.40625
-127.14,1686641136.421875
-120.66,1686641136.4375
-110.11,1686641136.453125
-96.21,1686641136.46875
-80.11,1686641136.484375
-63.22,1686641136.5
-46.94,1686641136.515625
-32.57,1686641136.53125
-21.00,1686641136.546875
-12.67,1686641136.5625
-7.52,1686641136.578125
-5.09,1686641136.59375
-4.68,1686641136.609375
-5.51,1686641136.625
-6.74,1686641136.640625
-7.42,1686641136.65625
-6.56,1686641136.671875
-3.29,1686641136.6875
2.93,1686641136.703125
12.00,1686641136.71875
23.15,1686641136.734375
35.06,1686641136.75
46.25,1686641136.765625
55.52,1686641136.78125
62.20,1686641136.796875
66.14,1686641136.8125
67.53,1686641136.828125
66.60,1686641136.84375
63.47,1686641136.859375
58.26,1686641136.875
51.39,1686641136.890625
43.79,1686641136.90625
36.85,1686641136.921875
32.10,1686641136.9375
30.63,1686641136.953125
32.62,1686641136.96875
37.38,1686641136.984375
43.65,1686641137.0
50.12,1686641137.015625
55.82,1686641137.03125
60.19,1686641137.046875
62.96,1686641137.0625
64.07,1686641137.078125
63.68,1686641137.09375
62.37,1686641137.109375
61.04,1686641137.125
60.78,1686641137.140625
62.41,1686641137.15625
66.32,1686641137.171875
72.42,1686641137.1875
80.41,1686641137.203125
89.91,1686641137.21875
100.48,1686641137.234375
111.28,1686641137.25
120.91,1686641137.265625
127.50,1686641137.28125
129.16,1686641137.296875
124.64,1686641137.3125
113.80,1686641137.328125
97.63,1686641137.34375
77.99,1686641137.359375
57.07,1686641137.375
37.05,1686641137.390625
19.71,1686641137.40625
6.19,1686641137.421875
-3.25,1686641137.4375
-9.36,1686641137.453125
-13.74,1686641137.46875
-18.23,1686641137.484375
-24.28,1686641137.5
-32.37,1686641137.515625
-41.95,1686641137.53125
-51.96,1686641137.546875
-61.45,1686641137.5625
-70.08,1686641137.578125
-78.18,1686641137.59375
-86.34,1686641137.609375
-94.83,1686641137.625
-103.31,1686641137.640625
-110.75,1686641137.65625
-115.73,1686641137.671875
-116.82,1686641137.6875
-112.98,1686641137.703125
-103.85,1686641137.71875
-89.80,1686641137.734375
-72.02,1686641137.75
-52.43,1686641137.765625
-33.38,1686641137.78125
-17.16,1686641137.796875
-5.61,1686641137.8125
0.31,1686641137.828125
0.63,1686641137.84375
-3.74,1686641137.859375
-11.30,1686641137.875
-20.31,1686641137.890625
-29.15,1686641137.90625
-36.64,1686641137.921875
-42.13,1686641137.9375
-45.45,1686641137.953125
-46.61,1686641137.96875
-45.56,1686641137.984375
-42.10,1686641138.0
-35.89,1686641138.015625
-26.80,1686641138.03125
-15.22,1686641138.046875
-2.27,1686641138.0625
10.29,1686641138.078125
20.55,1686641138.09375
27.02,1686641138.109375
29.16,1686641138.125
27.69,1686641138.140625
24.40,1686641138.15625
21.63,1686641138.171875
21.63,1686641138.1875
25.93,1686641138.203125
34.92,1686641138.21875
47.90,1686641138.234375
63.36,1686641138.25
79.44,1686641138.265625
94.43,1686641138.28125
106.88,1686641138.296875
115.79,1686641138.3125
120.52,1686641138.328125
120.94,1686641138.34375
117.39,1686641138.359375
110.70,1686641138.375
102.08,1686641138.390625
92.86,1686641138.40625
84.10,1686641138.421875
76.45,1686641138.4375
69.94,1686641138.453125
64.17,1686641138.46875
58.57,1686641138.484375
52.74,1686641138.5
46.52,1686641138.515625
40.03,1686641138.53125
33.48,1686641138.546875
26.98,1686641138.5625
20.41,1686641138.578125
13.48,1686641138.59375
5.88,1686641138.609375
-2.50,1686641138.625
-11.36,1686641138.640625
-20.00,1686641138.65625
-27.36,1686641138.671875
-32.37,1686641138.6875
-34.27,1686641138.703125
-32.90,1686641138.71875
-28.84,1686641138.734375
-23.30,1686641138.75
-17.76,1686641138.765625
-13.56,1686641138.78125
-11.48,1686641138.796875
-11.70,1686641138.8125
-13.80,1686641138.828125
-17.15,1686641138.84375
-21.13,1686641138.859375
-25.22,1686641138.875
-28.98,1686641138.890625
-31.98,1686641138.90625
-33.66,1686641138.921875
-33.50,1686641138.9375
-31.17,1686641138.953125
-26.63,1686641138.96875
-20.24,1686641138.984375
-12.58,1686641139.0
-4.26,1686641139.015625
4.21,1686641139.03125
12.53,1686641139.046875
20.51,1686641139.0625
27.94,1686641139.078125
34.59,1686641139.09375
40.14,1686641139.109375
44.43,1686641139.125
47.59,1686641139.140625
50.11,1686641139.15625
52.87,1686641139.171875
56.84,1686641139.1875
62.62,1686641139.203125
70.07,1686641139.21875
78.12,1686641139.234375
85.02,1686641139.25
88.83,1686641139.265625
88.09,1686641139.28125
82.31,1686641139.296875
72.00,1686641139.3125
58.46,1686641139.328125
43.20,1686641139.34375
27.45,1686641139.359375
12.09,1686641139.375
-2.39,1686641139.390625
-15.58,1686641139.40625
-27.03,1686641139.421875
-36.25,1686641139.4375
-42.90,1686641139.453125
-46.82,1686641139.46875
-48.16,1686641139.484375
-47.25,1686641139.5
-44.48,1686641139.515625
-40.26,1686641139.53125
-35.01,1686641139.546875
-29.21,1686641139.5625
-23.47,1686641139.578125
-18.52,1686641139.59375
-15.11,1686641139.609375
-13.91,1686641139.625
-15.19,1686641139.640625
-18.60,1686641139.65625
-23.16,1686641139.671875
-27.30,1686641139.6875
-29.51,1686641139.703125
-28.83,1686641139.71875
-25.36,1686641139.734375
-20.13,1686641139.75
-14.64,1686641139.765625
-10.10,1686641139.78125
-6.95,1686641139.796875
-4.97,1686641139.8125
-3.83,1686641139.828125
-3.56,1686641139.84375
-4.77,1686641139.859375
-8.22,1686641139.875
-14.18,1686641139.890625
-22.08,1686641139.90625
-30.60,1686641139.921875
-38.34,1686641139.9375
-44.43,1686641139.953125
-48.80,1686641139.96875
-51.95,1686641139.984375
-54.42,1686641140.0
-56.41,1686641140.015625
-57.65,1686641140.03125
-57.85,1686641140.046875
-56.98,1686641140.0625
-55.52,1686641140.078125
-54.24,1686641140.09375
-53.83,1686641140.109375
-54.57,1686641140.125
-56.21,1686641140.140625
-58.05,1686641140.15625
-59.30,1686641140.171875
-59.27,1686641140.1875
-57.46,1686641140.203125
-53.43,1686641140.21875
-46.87,1686641140.234375
-37.46,1686641140.25
-25.20,1686641140.265625
-10.55,1686641140.28125
5.36,1686641140.296875
20.78,1686641140.3125
33.66,1686641140.328125
42.14,1686641140.34375
45.06,1686641140.359375
42.24,1686641140.375
34.47,1686641140.390625
23.22,1686641140.40625
10.19,1686641140.421875
-3.05,1686641140.4375
-15.33,1686641140.453125
-25.89,1686641140.46875
-34.25,1686641140.484375
-40.10,1686641140.5
-43.24,1686641140.515625
-43.57,1686641140.53125
-41.34,1686641140.546875
-37.12,1686641140.5625
-31.91,1686641140.578125
-26.79,1686641140.59375
-22.74,1686641140.609375
-20.33,1686641140.625
-19.47,1686641140.640625
-19.52,1686641140.65625
-19.47,1686641140.671875
-18.29,1686641140.6875
-15.11,1686641140.703125
-9.47,1686641140.71875
-1.28,1686641140.734375
9.25,1686641140.75
21.57,1686641140.765625
34.91,1686641140.78125
48.30,1686641140.796875
60.60,1686641140.8125
70.64,1686641140.828125
77.51,1686641140.84375
80.90,1686641140.859375
81.07,1686641140.875
78.67,1686641140.890625
74.40,1686641140.90625
68.92,1686641140.921875
62.83,1686641140.9375
56.59,1686641140.953125
50.64,1686641140.96875
45.43,1686641140.984375
41.43,1686641141.0
38.90,1686641141.015625
37.76,1686641141.03125
37.51,1686641141.046875
37.57,1686641141.0625
37.45,1686641141.078125
36.81,1686641141.09375
35.28,1686641141.109375
32.65,1686641141.125
29.13,1686641141.140625
25.26,1686641141.15625
21.84,1686641141.171875
19.45,1686641141.1875
19.04,1686641141.203125
21.70,1686641141.21875
27.93,1686641141.234375
37.06,1686641141.25
47.69,1686641141.265625
58.49,1686641141.28125
68.24,1686641141.296875
75.96,1686641141.3125
80.21,1686641141.328125
80.47,1686641141.34375
76.96,1686641141.359375
69.72,1686641141.375
57.44,1686641141.390625
38.71,1686641141.40625
13.31,1686641141.421875
-18.11,1686641141.4375
-54.34,1686641141.453125
-94.98,1686641141.46875
-138.15,1686641141.484375
-180.48,1686641141.5
-218.64,1686641141.515625
-251.39,1686641141.53125
-278.82,1686641141.546875
-301.16,1686641141.5625
-319.61,1686641141.578125
-335.73,1686641141.59375
-351.46,1686641141.609375
-364.72,1686641141.625
-368.85,1686641141.640625
-355.85,1686641141.65625
-320.95,1686641141.671875
-262.91,1686641141.6875
-182.66,1686641141.703125
-83.54,1686641141.71875
38.59,1686641141.734375
173.18,1686641141.75
298.57,1686641141.765625
394.88,1686641141.78125
458.93,1686641141.796875
493.09,1686641141.8125
495.84,1686641141.828125
470.67,1686641141.84375
425.26,1686641141.859375
368.61,1686641141.875
306.25,1686641141.890625
241.34,1686641141.90625
175.10,1686641141.921875
107.38,1686641141.9375
37.46,1686641141.953125
-32.31,1686641141.96875
-95.03,1686641141.984375
-142.76,1686641142.0
-169.88,1686641142.015625
-176.20,1686641142.03125
-164.48,1686641142.046875
-139.04,1686641142.0625
-105.34,1686641142.078125
-70.28,1686641142.09375
-39.94,1686641142.109375
-17.37,1686641142.125
-3.13,1686641142.140625
4.41,1686641142.15625
7.51,1686641142.171875
9.43,1686641142.1875
13.14,1686641142.203125
19.74,1686641142.21875
27.71,1686641142.234375
34.97,1686641142.25
40.94,1686641142.265625
46.47,1686641142.28125
52.75,1686641142.296875
59.64,1686641142.3125
65.85,1686641142.328125
69.33,1686641142.34375
68.01,1686641142.359375
60.37,1686641142.375
46.34,1686641142.390625
27.35,1686641142.40625
5.54,1686641142.421875
-16.99,1686641142.4375
-38.59,1686641142.453125
-57.77,1686641142.46875
-73.30,1686641142.484375
-84.42,1686641142.5
-91.16,1686641142.515625
-94.13,1686641142.53125
-94.03,1686641142.546875
-91.31,1686641142.5625
-85.85,1686641142.578125
-76.99,1686641142.59375
-63.88,1686641142.609375
-46.17,1686641142.625
-24.46,1686641142.640625
-0.33,1686641142.65625
24.09,1686641142.671875
46.76,1686641142.6875
66.24,1686641142.703125
81.81,1686641142.71875
93.33,1686641142.734375
100.99,1686641142.75
105.33,1686641142.765625
107.40,1686641142.78125
108.94,1686641142.796875
112.09,1686641142.8125
118.66,1686641142.828125
129.26,1686641142.84375
142.83,1686641142.859375
157.03,1686641142.875
169.28,1686641142.890625
178.08,1686641142.90625
183.52,1686641142.921875
187.04,1686641142.9375
190.31,1686641142.953125
194.01,1686641142.96875
197.08,1686641142.984375
196.78,1686641143.0
189.48,1686641143.015625
172.01,1686641143.03125
142.80,1686641143.046875
102.51,1686641143.0625
53.97,1686641143.078125
1.27,1686641143.09375
-51.39,1686641143.109375
-100.92,1686641143.125
-145.93,1686641143.140625
-186.54,1686641143.15625
-223.63,1686641143.171875
-257.78,1686641143.1875
-288.58,1686641143.203125
-314.48,1686641143.21875
-333.32,1686641143.234375
-343.03,1686641143.25
-342.38,1686641143.265625
-331.31,1686641143.28125
-310.93,1686641143.296875
-283.14,1686641143.3125
-250.35,1686641143.328125
-215.13,1686641143.34375
-180.03,1686641143.359375
-147.42,1686641143.375
-119.32,1686641143.390625
-97.15,1686641143.40625
-81.55,1686641143.421875
-72.19,1686641143.4375
-67.91,1686641143.453125
-66.93,1686641143.46875
-67.33,1686641143.484375
-67.52,1686641143.5
-66.51,1686641143.515625
-64.00,1686641143.53125
-60.22,1686641143.546875
-55.62,1686641143.5625
-50.57,1686641143.578125
-45.25,1686641143.59375
-39.68,1686641143.609375
-33.93,1686641143.625
-28.36,1686641143.640625
-23.71,1686641143.65625
-21.05,1686641143.671875
-21.43,1686641143.6875
-25.44,1686641143.703125
-32.82,1686641143.71875
-42.18,1686641143.734375
-51.18,1686641143.75
-57.04,1686641143.765625
-57.21,1686641143.78125
-50.17,1686641143.796875
-35.77,1686641143.8125
-15.20,1686641143.828125
9.34,1686641143.84375
35.29,1686641143.859375
60.18,1686641143.875
81.95,1686641143.890625
99.06,1686641143.90625
110.47,1686641143.921875
115.69,1686641143.9375
114.91,1686641143.953125
108.94,1686641143.96875
99.10,1686641143.984375
86.97,1686641144.0
74.01,1686641144.015625
61.32,1686641144.03125
49.60,1686641144.046875
39.24,1686641144.0625
30.45,1686641144.078125
23.41,1686641144.09375
18.19,1686641144.109375
14.68,1686641144.125
12.47,1686641144.140625
10.93,1686641144.15625
9.22,1686641144.171875
6.50,1686641144.1875
2.02,1686641144.203125
-4.80,1686641144.21875
-14.23,1686641144.234375
-26.05,1686641144.25
-39.41,1686641144.265625
-52.74,1686641144.28125
-63.94,1686641144.296875
-70.75,1686641144.3125
-71.34,1686641144.328125
-64.83,1686641144.34375
-51.58,1686641144.359375
-33.15,1686641144.375
-11.98,1686641144.390625
9.07,1686641144.40625
27.15,1686641144.421875
39.80,1686641144.4375
45.32,1686641144.453125
43.05,1686641144.46875
33.47,1686641144.484375
18.18,1686641144.5
-0.45,1686641144.515625
-20.00,1686641144.53125
-38.57,1686641144.546875
-55.13,1686641144.5625
-69.54,1686641144.578125
-82.18,1686641144.59375
-93.52,1686641144.609375
-103.97,1686641144.625
-113.69,1686641144.640625
-122.44,1686641144.65625
-129.26,1686641144.671875
-132.22,1686641144.6875
-128.65,1686641144.703125
-116.17,1686641144.71875
-94.09,1686641144.734375
-64.60,1686641144.75
-32.62,1686641144.765625
-4.19,1686641144.78125
16.07,1686641144.796875
26.98,1686641144.8125
31.15,1686641144.828125
33.43,1686641144.84375
38.52,1686641144.859375
48.92,1686641144.875
64.40,1686641144.890625
83.08,1686641144.90625
102.88,1686641144.921875
122.59,1686641144.9375
142.02,1686641144.953125
161.19,1686641144.96875
179.61,1686641144.984375
195.86,1686641145.0
208.09,1686641145.015625
214.73,1686641145.03125
215.16,1686641145.046875
210.00,1686641145.0625
200.85,1686641145.078125
189.72,1686641145.09375
178.31,1686641145.109375
167.55,1686641145.125
157.41,1686641145.140625
147.13,1686641145.15625
135.76,1686641145.171875
122.90,1686641145.1875
109.08,1686641145.203125
95.64,1686641145.21875
84.26,1686641145.234375
76.15,1686641145.25
71.31,1686641145.265625
68.40,1686641145.28125
64.95,1686641145.296875
58.25,1686641145.3125
46.48,1686641145.328125
29.58,1686641145.34375
9.72,1686641145.359375
-9.03,1686641145.375
-21.81,1686641145.390625
-24.51,1686641145.40625
-15.02,1686641145.421875
5.98,1686641145.4375
35.30,1686641145.453125
68.25,1686641145.46875
99.90,1686641145.484375
125.99,1686641145.5
143.50,1686641145.515625
150.74,1686641145.53125
147.35,1686641145.546875
134.34,1686641145.5625
114.19,1686641145.578125
90.55,1686641145.59375
67.51,1686641145.609375
48.61,1686641145.625
35.90,1686641145.640625
29.71,1686641145.65625
28.95,1686641145.671875
31.86,1686641145.6875
36.60,1686641145.703125
41.51,1686641145.71875
45.02,1686641145.734375
45.71,1686641145.75
42.63,1686641145.765625
35.77,1686641145.78125
26.29,1686641145.796875
16.08,1686641145.8125
6.91,1686641145.828125
-0.53,1686641145.84375
-6.92,1686641145.859375
-13.77,1686641145.875
-22.19,1686641145.890625
-31.84,1686641145.90625
-40.65,1686641145.921875
-45.50,1686641145.9375
-43.52,1686641145.953125
-33.30,1686641145.96875
-15.37,1686641145.984375
8.04,1686641146.0
33.85,1686641146.015625
58.88,1686641146.03125
80.32,1686641146.046875
95.93,1686641146.0625
104.09,1686641146.078125
104.04,1686641146.09375
96.18,1686641146.109375
82.11,1686641146.125
64.32,1686641146.140625
45.44,1686641146.15625
27.47,1686641146.171875
11.45,1686641146.1875
-2.28,1686641146.203125
-13.58,1686641146.21875
-22.04,1686641146.234375
-27.14,1686641146.25
-28.68,1686641146.265625
-27.28,1686641146.28125
-24.31,1686641146.296875
-21.41,1686641146.3125
-19.83,1686641146.328125
-20.11,1686641146.34375
-22.29,1686641146.359375
-26.41,1686641146.375
-32.81,1686641146.390625
-41.88,1686641146.40625
-53.50,1686641146.421875
-66.49,1686641146.4375
-78.55,1686641146.453125
-87.00,1686641146.46875
-89.63,1686641146.484375
-85.46,1686641146.5
-74.88,1686641146.515625
-59.29,1686641146.53125
-40.50,1686641146.546875
-20.17,1686641146.5625
0.35,1686641146.578125
19.86,1686641146.59375
37.15,1686641146.609375
50.74,1686641146.625
59.04,1686641146.640625
60.76,1686641146.65625
55.47,1686641146.671875
44.03,1686641146.6875
28.50,1686641146.703125
11.65,1686641146.71875
-3.93,1686641146.734375
-16.46,1686641146.75
-25.30,1686641146.765625
-30.73,1686641146.78125
-33.45,1686641146.796875
-34.24,1686641146.8125
-33.79,1686641146.828125
-32.78,1686641146.84375
-32.03,1686641146.859375
-32.35,1686641146.875
-34.34,1686641146.890625
-38.21,1686641146.90625
-43.74,1686641146.921875
-50.35,1686641146.9375
-57.24,1686641146.953125
-63.41,1686641146.96875
-67.86,1686641146.984375
-69.64,1686641147.0
-68.16,1686641147.015625
-63.38,1686641147.03125
-55.93,1686641147.046875
-46.81,1686641147.0625
-37.03,1686641147.078125
-27.43,1686641147.09375
-18.56,1686641147.109375
-10.99,1686641147.125
-5.41,1686641147.140625
-2.66,1686641147.15625
-3.44,1686641147.171875
-8.01,1686641147.1875
-15.94,1686641147.203125
-26.23,1686641147.21875
-37.59,1686641147.234375
-48.71,1686641147.25
-58.62,1686641147.265625
-66.75,1686641147.28125
-72.86,1686641147.296875
-76.96,1686641147.3125
-79.22,1686641147.328125
-79.89,1686641147.34375
-79.37,1686641147.359375
-78.19,1686641147.375
-76.99,1686641147.390625
-76.47,1686641147.40625
-77.35,1686641147.421875
-80.24,1686641147.4375
-85.36,1686641147.453125
-92.36,1686641147.46875
-100.14,1686641147.484375
-106.89,1686641147.5
-110.41,1686641147.515625
-108.66,1686641147.53125
-100.37,1686641147.546875
-85.57,1686641147.5625
-65.68,1686641147.578125
-43.19,1686641147.59375
-20.91,1686641147.609375
-1.12,1686641147.625
14.90,1686641147.640625
26.90,1686641147.65625
35.23,1686641147.671875
40.28,1686641147.6875
42.30,1686641147.703125
41.45,1686641147.71875
38.13,1686641147.734375
33.14,1686641147.75
27.55,1686641147.765625
22.34,1686641147.78125
18.05,1686641147.796875
14.66,1686641147.8125
11.81,1686641147.828125
9.20,1686641147.84375
6.77,1686641147.859375
4.66,1686641147.875
2.92,1686641147.890625
1.23,1686641147.90625
-1.17,1686641147.921875
-5.19,1686641147.9375
-11.48,1686641147.953125
-20.06,1686641147.96875
-30.16,1686641147.984375
-40.35,1686641148.0
-48.83,1686641148.015625
-53.78,1686641148.03125
-53.66,1686641148.046875
-47.51,1686641148.0625
-35.17,1686641148.078125
-17.47,1686641148.09375
3.77,1686641148.109375
26.01,1686641148.125
46.48,1686641148.140625
62.82,1686641148.15625
73.58,1686641148.171875
78.47,1686641148.1875
78.25,1686641148.203125
74.18,1686641148.21875
67.53,1686641148.234375
59.27,1686641148.25
50.02,1686641148.265625
40.31,1686641148.28125
30.84,1686641148.296875
22.38,1686641148.3125
15.68,1686641148.328125
11.09,1686641148.34375
8.40,1686641148.359375
6.94,1686641148.375
5.82,1686641148.390625
4.23,1686641148.40625
1.56,1686641148.421875
-2.57,1686641148.4375
-8.47,1686641148.453125
-16.37,1686641148.46875
-26.30,1686641148.484375
-37.82,1686641148.5
-49.89,1686641148.515625
-60.78,1686641148.53125
-68.46,1686641148.546875
-70.99,1686641148.5625
-67.13,1686641148.578125
-56.69,1686641148.59375
-40.75,1686641148.609375
-21.45,1686641148.625
-1.38,1686641148.640625
16.97,1686641148.65625
31.83,1686641148.671875
42.39,1686641148.6875
48.74,1686641148.703125
51.42,1686641148.71875
51.08,1686641148.734375
48.19,1686641148.75
43.08,1686641148.765625
36.12,1686641148.78125
27.89,1686641148.796875
19.26,1686641148.8125
11.15,1686641148.828125
4.27,1686641148.84375
-1.08,1686641148.859375
-5.02,1686641148.875
-7.90,1686641148.890625
-10.09,1686641148.90625
-11.92,1686641148.921875
-13.70,1686641148.9375
-15.91,1686641148.953125
-19.27,1686641148.96875
-24.52,1686641148.984375
-32.09,1686641149.0
-41.60,1686641149.015625
-51.69,1686641149.03125
-60.20,1686641149.046875
-64.75,1686641149.0625
-63.43,1686641149.078125
-55.37,1686641149.09375
-41.06,1686641149.109375
-22.17,1686641149.125
-1.12,1686641149.140625
19.46,1686641149.15625
37.24,1686641149.171875
50.62,1686641149.1875
58.86,1686641149.203125
62.11,1686641149.21875
61.11,1686641149.234375
56.92,1686641149.25
50.53,1686641149.265625
42.77,1686641149.28125
34.23,1686641149.296875
25.46,1686641149.3125
17.04,1686641149.328125
9.58,1686641149.34375
3.62,1686641149.359375
-0.59,1686641149.375
-3.16,1686641149.390625
-4.52,1686641149.40625
-5.26,1686641149.421875
-6.03,1686641149.4375
-7.38,1686641149.453125
-9.81,1686641149.46875
-13.72,1686641149.484375
-19.20,1686641149.5
-25.86,1686641149.515625
-32.61,1686641149.53125
-37.74,1686641149.546875
-39.28,1686641149.5625
-35.60,1686641149.578125
-26.01,1686641149.59375
-11.09,1686641149.609375
7.36,1686641149.625
26.80,1686641149.640625
44.65,1686641149.65625
58.82,1686641149.671875
68.08,1686641149.6875
72.05,1686641149.703125
71.06,1686641149.71875
65.90,1686641149.734375
57.59,1686641149.75
47.19,1686641149.765625
35.77,1686641149.78125
24.30,1686641149.796875
13.63,1686641149.8125
4.45,1686641149.828125
-2.83,1686641149.84375
-8.08,1686641149.859375
-11.55,1686641149.875
-13.82,1686641149.890625
-15.70,1686641149.90625
-18.08,1686641149.921875
-21.71,1686641149.9375
-27.00,1686641149.953125
-34.02,1686641149.96875
-42.33,1686641149.984375
-51.00,1686641150.0
-58.66,1686641150.015625
-63.63,1686641150.03125
-64.29,1686641150.046875
-59.54,1686641150.0625
-49.17,1686641150.078125
-34.04,1686641150.09375
-15.92,1686641150.109375
2.93,1686641150.125
20.33,1686641150.140625
34.58,1686641150.15625
44.71,1686641150.171875
50.46,1686641150.1875
52.06,1686641150.203125
50.06,1686641150.21875
45.17,1686641150.234375
38.13,1686641150.25
29.72,1686641150.265625
20.70,1686641150.28125
11.84,1686641150.296875
3.87,1686641150.3125
-2.59,1686641150.328125
-7.16,1686641150.34375
-9.74,1686641150.359375
-10.58,1686641150.375
-10.28,1686641150.390625
-9.71,1686641150.40625
-9.82,1686641150.421875
-11.50,1686641150.4375
-15.30,1686641150.453125
-21.21,1686641150.46875
-28.54,1686641150.484375
-35.85,1686641150.5
-41.32,1686641150.515625
-43.09,1686641150.53125
-39.77,1686641150.546875
-30.90,1686641150.5625
-17.11,1686641150.578125
-0.05,1686641150.59375
18.02,1686641150.609375
34.78,1686641150.625
48.29,1686641150.640625
57.38,1686641150.65625
61.67,1686641150.671875
61.44,1686641150.6875
57.36,1686641150.703125
50.27,1686641150.71875
41.04,1686641150.734375
30.60,1686641150.75
19.92,1686641150.765625
9.97,1686641150.78125
1.65,1686641150.796875
-4.52,1686641150.8125
-8.43,1686641150.828125
-10.40,1686641150.84375
-11.09,1686641150.859375
-11.25,1686641150.875
-11.59,1686641150.890625
-12.76,1686641150.90625
-15.28,1686641150.921875
-19.56,1686641150.9375
-25.72,1686641150.953125
-33.31,1686641150.96875
-41.20,1686641150.984375
-47.64,1686641151.0
-50.63,1686641151.015625
-48.49,1686641151.03125
-40.45,1686641151.046875
-27.00,1686641151.0625
-9.75,1686641151.078125
8.83,1686641151.09375
26.18,1686641151.109375
40.12,1686641151.125
49.27,1686641151.140625
53.23,1686641151.15625
52.33,1686641151.171875
47.36,1686641151.1875
39.27,1686641151.203125
29.00,1686641151.21875
17.47,1686641151.234375
5.60,1686641151.25
-5.62,1686641151.265625
-15.27,1686641151.28125
-22.69,1686641151.296875
-27.64,1686641151.3125
-30.41,1686641151.328125
-31.78,1686641151.34375
-32.68,1686641151.359375
-33.97,1686641151.375
-36.21,1686641151.390625
-39.64,1686641151.40625
-44.28,1686641151.421875
-49.90,1686641151.4375
-56.04,1686641151.453125
-61.84,1686641151.46875
-65.95,1686641151.484375
-66.71,1686641151.5
-62.61,1686641151.515625
-52.74,1686641151.53125
-37.23,1686641151.546875
-17.08,1686641151.5625
6.24,1686641151.578125
31.31,1686641151.59375
56.99,1686641151.609375
82.32,1686641151.625
106.30,1686641151.640625
127.78,1686641151.65625
145.61,1686641151.671875
159.01,1686641151.6875
167.76,1686641151.703125
172.13,1686641151.71875
172.50,1686641151.734375
169.03,1686641151.75
161.61,1686641151.765625
150.09,1686641151.78125
134.85,1686641151.796875
117.01,1686641151.8125
98.45,1686641151.828125
81.20,1686641151.84375
66.86,1686641151.859375
56.06,1686641151.875
48.31,1686641151.890625
42.28,1686641151.90625
36.38,1686641151.921875
29.48,1686641151.9375
21.57,1686641151.953125
13.98,1686641151.96875
9.05,1686641151.984375
9.36,1686641152.0
16.47,1686641152.015625
30.10,1686641152.03125
47.83,1686641152.046875
65.59,1686641152.0625
78.87,1686641152.078125
84.01,1686641152.09375
79.14,1686641152.109375
64.43,1686641152.125
41.70,1686641152.140625
13.67,1686641152.15625
-16.78,1686641152.171875
-47.05,1686641152.1875
-75.00,1686641152.203125
-98.98,1686641152.21875
-117.83,1686641152.234375
-131.02,1686641152.25
-138.75,1686641152.265625
-141.93,1686641152.28125
-142.07,1686641152.296875
-140.85,1686641152.3125
-139.81,1686641152.328125
-140.01,1686641152.34375
-142.02,1686641152.359375
-146.04,1686641152.375
-151.96,1686641152.390625
-159.42,1686641152.40625
-167.63,1686641152.421875
-175.22,1686641152.4375
-180.31,1686641152.453125
-180.87,1686641152.46875
-175.30,1686641152.484375
-163.06,1686641152.5
-144.90,1686641152.515625
-122.67,1686641152.53125
-98.85,1686641152.546875
-75.78,1686641152.5625
-55.23,1686641152.578125
-38.26,1686641152.59375
-25.31,1686641152.609375
-16.46,1686641152.625
-11.55,1686641152.640625
-10.26,1686641152.65625
-12.05,1686641152.671875
-16.14,1686641152.6875
-21.55,1686641152.703125
-27.22,1686641152.71875
-32.15,1686641152.734375
-35.59,1686641152.75
-37.11,1686641152.765625
-36.72,1686641152.78125
-34.85,1686641152.796875
-32.32,1686641152.8125
-30.12,1686641152.828125
-29.18,1686641152.84375
-30.05,1686641152.859375
-32.69,1686641152.875
-36.39,1686641152.890625
-39.85,1686641152.90625
-41.47,1686641152.921875
-39.67,1686641152.9375
-33.32,1686641152.953125
-22.08,1686641152.96875
-6.52,1686641152.984375
11.84,1686641153.0
30.87,1686641153.015625
48.33,1686641153.03125
62.37,1686641153.046875
72.04,1686641153.0625
77.28,1686641153.078125
78.80,1686641153.09375
77.54,1686641153.109375
74.31,1686641153.125
69.53,1686641153.140625
63.42,1686641153.15625
56.13,1686641153.171875
48.08,1686641153.1875
39.93,1686641153.203125
32.47,1686641153.21875
26.39,1686641153.234375
22.07,1686641153.25
19.50,1686641153.265625
18.31,1686641153.28125
17.90,1686641153.296875
17.52,1686641153.3125
16.43,1686641153.328125
14.12,1686641153.34375
10.61,1686641153.359375
6.65,1686641153.375
3.68,1686641153.390625
3.45,1686641153.40625
7.50,1686641153.421875
16.55,1686641153.4375
30.25,1686641153.453125
47.22,1686641153.46875
65.44,1686641153.484375
82.79,1686641153.5
97.48,1686641153.515625
108.31,1686641153.53125
114.66,1686641153.546875
116.40,1686641153.5625
113.70,1686641153.578125
107.02,1686641153.59375
97.01,1686641153.609375
84.49,1686641153.625
70.40,1686641153.640625
55.68,1686641153.65625
41.23,1686641153.671875
27.80,1686641153.6875
15.91,1686641153.703125
5.61,1686641153.71875
-3.66,1686641153.734375
-13.09,1686641153.75
-24.22,1686641153.765625
-38.55,1686641153.78125
-57.05,1686641153.796875
-79.80,1686641153.8125
-106.01,1686641153.828125
-134.23,1686641153.84375
-162.84,1686641153.859375
-190.31,1686641153.875
-215.39,1686641153.890625
-237.01,1686641153.90625
-254.31,1686641153.921875
-266.70,1686641153.9375
-274.11,1686641153.953125
-277.09,1686641153.96875
-276.64,1686641153.984375
-273.61,1686641154.0
-268.19,1686641154.015625
-259.70,1686641154.03125
-246.76,1686641154.046875
-227.85,1686641154.0625
-202.09,1686641154.078125
-169.50,1686641154.09375
-131.07,1686641154.109375
-88.59,1686641154.125
-44.11,1686641154.140625
0.46,1686641154.15625
43.80,1686641154.171875
85.35,1686641154.1875
125.00,1686641154.203125
162.34,1686641154.21875
195.87,1686641154.234375
222.68,1686641154.25
239.19,1686641154.265625
242.88,1686641154.28125
233.94,1686641154.296875
216.02,1686641154.3125
195.34,1686641154.328125
178.46,1686641154.34375
169.95,1686641154.359375
171.24,1686641154.375
181.04,1686641154.390625
196.83,1686641154.40625
216.33,1686641154.421875
238.10,1686641154.4375
261.14,1686641154.453125
284.12,1686641154.46875
304.99,1686641154.484375
321.58,1686641154.5
332.74,1686641154.515625
339.19,1686641154.53125
343.50,1686641154.546875
349.12,1686641154.5625
358.76,1686641154.578125
373.06,1686641154.59375
390.32,1686641154.609375
407.40,1686641154.625
421.21,1686641154.640625
430.04,1686641154.65625
433.92,1686641154.671875
433.99,1686641154.6875
431.33,1686641154.703125
425.98,1686641154.71875
416.90,1686641154.734375
402.81,1686641154.75
383.32,1686641154.765625
359.64,1686641154.78125
334.31,1686641154.796875
309.97,1686641154.8125
288.05,1686641154.828125
268.07,1686641154.84375
247.90,1686641154.859375
224.88,1686641154.875
197.28,1686641154.890625
165.03,1686641154.90625
129.75,1686641154.921875
93.86,1686641154.9375
59.59,1686641154.953125
28.20,1686641154.96875
-0.06,1686641154.984375
-25.41,1686641155.0
-47.98,1686641155.015625
-67.46,1686641155.03125
-83.33,1686641155.046875
-95.31,1686641155.0625
-103.80,1686641155.078125
-109.69,1686641155.09375
-114.18,1686641155.109375
-118.12,1686641155.125
-121.76,1686641155.140625
-124.87,1686641155.15625
-127.02,1686641155.171875
-128.13,1686641155.1875
-128.78,1686641155.203125
-130.11,1686641155.21875
-133.45,1686641155.234375
-139.78,1686641155.25
-149.36,1686641155.265625
-161.69,1686641155.28125
-175.97,1686641155.296875
-191.61,1686641155.3125
-208.72,1686641155.328125
-228.16,1686641155.34375
-251.25,1686641155.359375
-279.05,1686641155.375
-311.78,1686641155.390625
-348.46,1686641155.40625
-387.18,1686641155.421875
-425.57,1686641155.4375
-461.40,1686641155.453125
-492.76,1686641155.46875
-518.12,1686641155.484375
-536.47,1686641155.5
-547.45,1686641155.515625
-551.72,1686641155.53125
-550.68,1686641155.546875
-545.78,1686641155.5625
-537.51,1686641155.578125
-524.61,1686641155.59375
-504.55,1686641155.609375
-475.04,1686641155.625
-435.87,1686641155.640625
-390.07,1686641155.65625
-343.14,1686641155.671875
-300.96,1686641155.6875
-267.22,1686641155.703125
-241.94,1686641155.71875
-221.87,1686641155.734375
-202.47,1686641155.75
-180.39,1686641155.765625
-155.02,1686641155.78125
-128.41,1686641155.796875
-103.72,1686641155.8125
-83.23,1686641155.828125
-66.91,1686641155.84375
-52.46,1686641155.859375
-36.91,1686641155.875
-18.55,1686641155.890625
1.72,1686641155.90625
20.78,1686641155.921875
34.98,1686641155.9375
42.40,1686641155.953125
43.94,1686641155.96875
42.47,1686641155.984375
40.74,1686641156.0
39.42,1686641156.015625
36.90,1686641156.03125
30.83,1686641156.046875
20.37,1686641156.0625
7.30,1686641156.078125
-4.82,1686641156.09375
-12.84,1686641156.109375
-16.01,1686641156.125
-16.33,1686641156.140625
-17.32,1686641156.15625
-21.84,1686641156.171875
-30.86,1686641156.1875
-43.43,1686641156.203125
-57.82,1686641156.21875
-72.58,1686641156.234375
-86.89,1686641156.25
-99.90,1686641156.265625
-109.94,1686641156.28125
-114.41,1686641156.296875
-110.56,1686641156.3125
-97.06,1686641156.328125
-74.95,1686641156.34375
-48.06,1686641156.359375
-21.90,1686641156.375
-1.76,1686641156.390625
9.45,1686641156.40625
12.56,1686641156.421875
11.89,1686641156.4375
13.54,1686641156.453125
22.67,1686641156.46875
41.23,1686641156.484375
67.14,1686641156.5
95.21,1686641156.515625
119.32,1686641156.53125
134.65,1686641156.546875
138.88,1686641156.5625
132.31,1686641156.578125
116.99,1686641156.59375
95.63,1686641156.609375
71.00,1686641156.625
45.49,1686641156.640625
21.11,1686641156.65625
-0.54,1686641156.671875
-18.27,1686641156.6875
-31.21,1686641156.703125
-38.67,1686641156.71875
-40.02,1686641156.734375
-34.85,1686641156.75
-23.41,1686641156.765625
-6.96,1686641156.78125
12.16,1686641156.796875
31.22,1686641156.8125
47.97,1686641156.828125
61.45,1686641156.84375
71.74,1686641156.859375
79.10,1686641156.875
83.11,1686641156.890625
82.41,1686641156.90625
75.54,1686641156.921875
62.34,1686641156.9375
44.65,1686641156.953125
26.12,1686641156.96875
10.71,1686641156.984375
1.17,1686641157.0
-1.67,1686641157.015625
1.55,1686641157.03125
9.89,1686641157.046875
22.97,1686641157.0625
40.72,1686641157.078125
62.38,1686641157.09375
85.57,1686641157.109375
106.53,1686641157.125
121.59,1686641157.140625
128.98,1686641157.15625
129.89,1686641157.171875
127.95,1686641157.1875
127.48,1686641157.203125
131.47,1686641157.21875
140.55,1686641157.234375
153.15,1686641157.25
166.87,1686641157.265625
179.64,1686641157.28125
190.36,1686641157.296875
198.56,1686641157.3125
203.77,1686641157.328125
204.92,1686641157.34375
200.49,1686641157.359375
189.22,1686641157.375
170.93,1686641157.390625
146.86,1686641157.40625
119.16,1686641157.421875
89.99,1686641157.4375
60.47,1686641157.453125
30.43,1686641157.46875
-0.89,1686641157.484375
-33.63,1686641157.5
-66.18,1686641157.515625
-95.27,1686641157.53125
-116.95,1686641157.546875
-128.30,1686641157.5625
-128.74,1686641157.578125
-120.38,1686641157.59375
-107.19,1686641157.609375
-93.64,1686641157.625
-83.48,1686641157.640625
-79.00,1686641157.65625
-80.93,1686641157.671875
-88.49,1686641157.6875
-99.50,1686641157.703125
-110.50,1686641157.71875
-117.13,1686641157.734375
-115.14,1686641157.75
-101.72,1686641157.765625
-76.64,1686641157.78125
-42.63,1686641157.796875
-4.61,1686641157.8125
31.80,1686641157.828125
61.90,1686641157.84375
82.86,1686641157.859375
93.92,1686641157.875
95.82,1686641157.890625
90.13,1686641157.90625
78.71,1686641157.921875
63.47,1686641157.9375
46.39,1686641157.953125
29.45,1686641157.96875
14.35,1686641157.984375
2.20,1686641158.0
-6.71,1686641158.015625
-12.92,1686641158.03125
-17.46,1686641158.046875
-21.45,1686641158.0625
-25.73,1686641158.078125
-30.76,1686641158.09375
-36.66,1686641158.109375
-43.35,1686641158.125
-50.71,1686641158.140625
