1687245313.00,timestamp
-0.00,1687245313.0
-0.00,1687245313.015625
-0.00,1687245313.03125
-0.00,1687245313.046875
-0.00,1687245313.0625
-0.00,1687245313.078125
-0.00,1687245313.09375
-0.00,1687245313.109375
-0.00,1687245313.125
-0.00,1687245313.140625
0.00,1687245313.15625
0.01,1687245313.171875
0.01,1687245313.1875
-0.00,1687245313.203125
-0.03,1687245313.21875
-0.05,1687245313.234375
-0.05,1687245313.25
0.00,1687245313.265625
0.13,1687245313.28125
0.36,1687245313.296875
0.66,1687245313.3125
1.01,1687245313.328125
1.37,1687245313.34375
1.72,1687245313.359375
2.06,1687245313.375
2.40,1687245313.390625
2.79,1687245313.40625
3.24,1687245313.421875
3.80,1687245313.4375
4.42,1687245313.453125
5.06,1687245313.46875
5.66,1687245313.484375
6.20,1687245313.5
6.68,1687245313.515625
7.15,1687245313.53125
7.68,1687245313.546875
8.31,1687245313.5625
9.14,1687245313.578125
10.09,1687245313.59375
11.04,1687245313.609375
11.88,1687245313.625
12.56,1687245313.640625
13.14,1687245313.65625
13.76,1687245313.671875
14.65,1687245313.6875
15.96,1687245313.703125
17.91,1687245313.71875
20.32,1687245313.734375
22.90,1687245313.75
25.38,1687245313.765625
27.58,1687245313.78125
29.57,1687245313.796875
31.68,1687245313.8125
34.32,1687245313.828125
37.81,1687245313.84375
42.54,1687245313.859375
48.15,1687245313.875
54.10,1687245313.890625
59.83,1687245313.90625
64.97,1687245313.921875
69.58,1687245313.9375
74.14,1687245313.953125
79.34,1687245313.96875
85.71,1687245313.984375
93.76,1687245314.0
103.00,1687245314.015625
112.62,1687245314.03125
121.73,1687245314.046875
129.77,1687245314.0625
136.75,1687245314.078125
143.30,1687245314.09375
150.75,1687245314.109375
157.77,1687245314.125
166.64,1687245314.140625
177.95,1687245314.15625
191.79,1687245314.171875
206.97,1687245314.1875
220.57,1687245314.203125
228.25,1687245314.21875
225.36,1687245314.234375
208.53,1687245314.25
176.87,1687245314.265625
132.76,1687245314.28125
80.05,1687245314.296875
23.07,1687245314.3125
-34.94,1687245314.328125
-92.44,1687245314.34375
-149.16,1687245314.359375
-205.23,1687245314.375
-260.37,1687245314.390625
-313.74,1687245314.40625
-363.87,1687245314.421875
-409.83,1687245314.4375
-450.91,1687245314.453125
-486.50,1687245314.46875
-515.74,1687245314.484375
-537.23,1687245314.5
-549.22,1687245314.515625
-549.96,1687245314.53125
-538.37,1687245314.546875
-514.21,1687245314.5625
-478.67,1687245314.578125
-433.88,1687245314.59375
-382.45,1687245314.609375
-327.02,1687245314.625
-269.84,1687245314.640625
-212.63,1687245314.65625
-156.66,1687245314.671875
-102.95,1687245314.6875
-52.37,1687245314.703125
-5.90,1687245314.71875
35.58,1687245314.734375
71.43,1687245314.75
101.35,1687245314.765625
125.50,1687245314.78125
144.38,1687245314.796875
158.69,1687245314.8125
169.15,1687245314.828125
176.37,1687245314.84375
180.75,1687245314.859375
182.57,1687245314.875
182.07,1687245314.890625
179.51,1687245314.90625
175.23,1687245314.921875
169.65,1687245314.9375
163.18,1687245314.953125
156.15,1687245314.96875
148.81,1687245314.984375
141.30,1687245315.0
133.69,1687245315.015625
126.02,1687245315.03125
118.33,1687245315.046875
110.69,1687245315.0625
103.16,1687245315.078125
95.80,1687245315.09375
88.68,1687245315.109375
81.83,1687245315.125
75.25,1687245315.140625
68.95,1687245315.15625
62.95,1687245315.171875
57.25,1687245315.1875
51.86,1687245315.203125
46.78,1687245315.21875
42.03,1687245315.234375
37.59,1687245315.25
33.45,1687245315.265625
29.61,1687245315.28125
26.07,1687245315.296875
22.81,1687245315.3125
19.83,1687245315.328125
17.11,1687245315.34375
14.67,1687245315.359375
12.48,1687245315.375
10.54,1687245315.390625
8.83,1687245315.40625
7.35,1687245315.421875
6.07,1687245315.4375
4.97,1687245315.453125
4.05,1687245315.46875
3.27,1687245315.484375
2.62,1687245315.5
2.09,1687245315.515625
1.65,1687245315.53125
1.30,1687245315.546875
1.01,1687245315.5625
0.78,1687245315.578125
0.61,1687245315.59375
0.48,1687245315.609375
0.39,1687245315.625
0.32,1687245315.640625
0.27,1687245315.65625
0.20,1687245315.671875
0.12,1687245315.6875
0.02,1687245315.703125
-0.08,1687245315.71875
-0.15,1687245315.734375
-0.19,1687245315.75
-0.18,1687245315.765625
-0.14,1687245315.78125
-0.09,1687245315.796875
-0.07,1687245315.8125
-0.08,1687245315.828125
-0.13,1687245315.84375
-0.19,1687245315.859375
-0.23,1687245315.875
-0.23,1687245315.890625
-0.18,1687245315.90625
-0.10,1687245315.921875
-0.03,1687245315.9375
-0.03,1687245315.953125
-0.11,1687245315.96875
-0.27,1687245315.984375
-0.45,1687245316.0
-0.58,1687245316.015625
-0.59,1687245316.03125
-0.47,1687245316.046875
-0.27,1687245316.0625
-0.12,1687245316.078125
-0.13,1687245316.09375
-0.37,1687245316.109375
-0.82,1687245316.125
-1.33,1687245316.140625
-1.69,1687245316.15625
-1.77,1687245316.171875
-1.51,1687245316.1875
-1.06,1687245316.203125
-0.65,1687245316.21875
-0.57,1687245316.234375
-0.96,1687245316.25
-1.78,1687245316.265625
-2.73,1687245316.28125
-3.46,1687245316.296875
-3.64,1687245316.3125
-3.21,1687245316.328125
-2.37,1687245316.34375
-1.59,1687245316.359375
-1.31,1687245316.375
-1.81,1687245316.390625
-3.00,1687245316.40625
-4.44,1687245316.421875
-5.56,1687245316.4375
-5.96,1687245316.453125
-5.47,1687245316.46875
-4.35,1687245316.484375
-3.08,1687245316.5
-2.19,1687245316.515625
-2.06,1687245316.53125
-2.96,1687245316.546875
-5.01,1687245316.5625
-8.04,1687245316.578125
-11.37,1687245316.59375
-13.67,1687245316.609375
-13.26,1687245316.625
-8.78,1687245316.640625
-0.01,1687245316.65625
11.69,1687245316.671875
23.70,1687245316.6875
33.10,1687245316.703125
37.96,1687245316.71875
37.81,1687245316.734375
33.71,1687245316.75
27.47,1687245316.765625
20.69,1687245316.78125
14.26,1687245316.796875
8.37,1687245316.8125
2.97,1687245316.828125
-1.80,1687245316.84375
-5.54,1687245316.859375
-7.87,1687245316.875
-8.65,1687245316.890625
-8.22,1687245316.90625
-7.28,1687245316.921875
-6.58,1687245316.9375
-6.66,1687245316.953125
-7.61,1687245316.96875
-9.05,1687245316.984375
-10.26,1687245317.0
-10.48,1687245317.015625
-9.20,1687245317.03125
-6.38,1687245317.046875
-2.54,1687245317.0625
1.45,1687245317.078125
4.71,1687245317.09375
6.72,1687245317.109375
7.44,1687245317.125
7.22,1687245317.140625
6.64,1687245317.15625
6.11,1687245317.171875
5.83,1687245317.1875
5.70,1687245317.203125
5.54,1687245317.21875
5.16,1687245317.234375
4.56,1687245317.25
3.88,1687245317.265625
3.30,1687245317.28125
3.02,1687245317.296875
3.07,1687245317.3125
3.35,1687245317.328125
3.74,1687245317.34375
4.07,1687245317.359375
4.31,1687245317.375
4.52,1687245317.390625
4.82,1687245317.40625
5.31,1687245317.421875
5.92,1687245317.4375
6.52,1687245317.453125
6.93,1687245317.46875
7.09,1687245317.484375
7.03,1687245317.5
6.89,1687245317.515625
6.84,1687245317.53125
6.96,1687245317.546875
7.29,1687245317.5625
7.76,1687245317.578125
8.39,1687245317.59375
9.20,1687245317.609375
10.29,1687245317.625
11.64,1687245317.640625
13.07,1687245317.65625
14.21,1687245317.671875
14.57,1687245317.6875
13.80,1687245317.703125
11.99,1687245317.71875
9.62,1687245317.734375
7.40,1687245317.75
6.11,1687245317.765625
6.12,1687245317.78125
7.21,1687245317.796875
8.56,1687245317.8125
9.02,1687245317.828125
7.73,1687245317.84375
4.57,1687245317.859375
0.47,1687245317.875
-2.68,1687245317.890625
-2.64,1687245317.90625
2.50,1687245317.921875
13.71,1687245317.9375
30.59,1687245317.953125
51.56,1687245317.96875
74.23,1687245317.984375
95.90,1687245318.0
114.05,1687245318.015625
126.66,1687245318.03125
132.45,1687245318.046875
131.00,1687245318.0625
122.82,1687245318.078125
109.30,1687245318.09375
92.37,1687245318.109375
73.89,1687245318.125
55.00,1687245318.140625
35.89,1687245318.15625
16.11,1687245318.171875
-4.58,1687245318.1875
-25.60,1687245318.203125
-45.57,1687245318.21875
-63.05,1687245318.234375
-77.42,1687245318.25
-89.26,1687245318.265625
-99.96,1687245318.28125
-110.77,1687245318.296875
-121.92,1687245318.3125
-132.32,1687245318.328125
-140.12,1687245318.34375
-143.59,1687245318.359375
-142.11,1687245318.375
-136.41,1687245318.390625
-128.17,1687245318.40625
-119.16,1687245318.421875
-110.21,1687245318.4375
-100.85,1687245318.453125
-89.69,1687245318.46875
-75.30,1687245318.484375
-57.22,1687245318.5
-36.38,1687245318.515625
-14.92,1687245318.53125
4.72,1687245318.546875
20.84,1687245318.5625
33.05,1687245318.578125
42.08,1687245318.59375
48.99,1687245318.609375
54.48,1687245318.625
58.50,1687245318.640625
60.53,1687245318.65625
60.08,1687245318.671875
56.92,1687245318.6875
51.01,1687245318.703125
42.46,1687245318.71875
31.46,1687245318.734375
18.59,1687245318.75
5.13,1687245318.765625
-7.13,1687245318.78125
-16.50,1687245318.796875
-22.08,1687245318.8125
-24.20,1687245318.828125
-24.01,1687245318.84375
-22.73,1687245318.859375
-20.92,1687245318.875
-18.30,1687245318.890625
-14.26,1687245318.90625
-8.62,1687245318.921875
-2.18,1687245318.9375
3.53,1687245318.953125
7.02,1687245318.96875
7.65,1687245318.984375
6.03,1687245319.0
3.52,1687245319.015625
1.37,1687245319.03125
-0.03,1687245319.046875
-1.29,1687245319.0625
-3.44,1687245319.078125
-7.09,1687245319.09375
-11.92,1687245319.109375
-16.81,1687245319.125
-20.36,1687245319.140625
-21.79,1687245319.15625
-21.24,1687245319.171875
-19.71,1687245319.1875
-18.51,1687245319.203125
-18.61,1687245319.21875
-20.17,1687245319.234375
-22.52,1687245319.25
-24.54,1687245319.265625
-25.19,1687245319.28125
-24.00,1687245319.296875
-21.33,1687245319.3125
-18.11,1687245319.328125
-15.41,1687245319.34375
-13.86,1687245319.359375
-13.38,1687245319.375
-13.29,1687245319.390625
-12.73,1687245319.40625
-11.11,1687245319.421875
-8.29,1687245319.4375
-4.50,1687245319.453125
-0.01,1687245319.46875
4.95,1687245319.484375
10.10,1687245319.5
14.99,1687245319.515625
18.90,1687245319.53125
20.99,1687245319.546875
20.78,1687245319.5625
18.63,1687245319.578125
15.81,1687245319.59375
14.04,1687245319.609375
14.66,1687245319.625
17.90,1687245319.640625
22.71,1687245319.65625
27.23,1687245319.671875
29.60,1687245319.6875
28.78,1687245319.703125
24.99,1687245319.71875
19.51,1687245319.734375
13.84,1687245319.75
8.91,1687245319.765625
4.49,1687245319.78125
-0.14,1687245319.796875
-5.42,1687245319.8125
-10.83,1687245319.828125
-14.82,1687245319.84375
-15.41,1687245319.859375
-11.27,1687245319.875
-2.58,1687245319.890625
8.79,1687245319.90625
19.79,1687245319.921875
27.98,1687245319.9375
32.67,1687245319.953125
34.77,1687245319.96875
35.87,1687245319.984375
37.22,1687245320.0
39.15,1687245320.015625
40.84,1687245320.03125
40.80,1687245320.046875
37.22,1687245320.0625
29.91,1687245320.078125
20.42,1687245320.09375
10.72,1687245320.109375
1.83,1687245320.125
-6.68,1687245320.140625
-16.17,1687245320.15625
-28.19,1687245320.171875
-43.57,1687245320.1875
-62.67,1687245320.203125
-83.51,1687245320.21875
-102.43,1687245320.234375
-116.67,1687245320.25
-126.17,1687245320.265625
-133.29,1687245320.28125
-141.03,1687245320.296875
-151.33,1687245320.3125
-164.31,1687245320.328125
-179.20,1687245320.34375
-192.56,1687245320.359375
-198.97,1687245320.375
-193.46,1687245320.390625
-172.64,1687245320.40625
-134.43,1687245320.421875
-77.82,1687245320.4375
-3.94,1687245320.453125
88.27,1687245320.46875
184.85,1687245320.484375
263.33,1687245320.5
307.47,1687245320.515625
316.55,1687245320.53125
301.80,1687245320.546875
277.00,1687245320.5625
252.09,1687245320.578125
231.53,1687245320.59375
215.76,1687245320.609375
204.52,1687245320.625
197.37,1687245320.640625
196.19,1687245320.65625
201.45,1687245320.671875
209.70,1687245320.6875
214.40,1687245320.703125
208.95,1687245320.71875
189.72,1687245320.734375
157.23,1687245320.75
114.53,1687245320.765625
68.01,1687245320.78125
26.01,1687245320.796875
-5.87,1687245320.8125
-27.00,1687245320.828125
-40.78,1687245320.84375
-51.90,1687245320.859375
-63.94,1687245320.875
-78.14,1687245320.890625
-93.87,1687245320.90625
-108.44,1687245320.921875
-118.34,1687245320.9375
-121.53,1687245320.953125
-118.43,1687245320.96875
-111.34,1687245320.984375
-102.90,1687245321.0
-94.94,1687245321.015625
-87.83,1687245321.03125
-80.92,1687245321.046875
-72.96,1687245321.0625
-63.06,1687245321.078125
-51.86,1687245321.09375
-41.30,1687245321.109375
-33.32,1687245321.125
-28.49,1687245321.140625
-25.72,1687245321.15625
-23.08,1687245321.171875
-19.20,1687245321.1875
-13.98,1687245321.203125
-8.43,1687245321.21875
-4.00,1687245321.234375
-1.43,1687245321.25
-0.20,1687245321.265625
1.13,1687245321.28125
3.86,1687245321.296875
8.17,1687245321.3125
12.94,1687245321.328125
16.37,1687245321.34375
17.04,1687245321.359375
14.54,1687245321.375
9.59,1687245321.390625
3.40,1687245321.40625
-3.13,1687245321.421875
-9.82,1687245321.4375
-17.02,1687245321.453125
-25.00,1687245321.46875
-33.46,1687245321.484375
-41.44,1687245321.5
-47.89,1687245321.515625
-52.27,1687245321.53125
-54.93,1687245321.546875
-56.93,1687245321.5625
-59.31,1687245321.578125
-62.37,1687245321.59375
-65.41,1687245321.609375
-67.09,1687245321.625
-66.14,1687245321.640625
-62.05,1687245321.65625
-55.35,1687245321.671875
-47.31,1687245321.6875
-39.34,1687245321.703125
-32.45,1687245321.71875
-27.06,1687245321.734375
-23.10,1687245321.75
-20.21,1687245321.765625
-18.04,1687245321.78125
-16.30,1687245321.796875
-14.78,1687245321.8125
-13.36,1687245321.828125
-11.97,1687245321.84375
-10.56,1687245321.859375
-8.99,1687245321.875
-7.03,1687245321.890625
-4.41,1687245321.90625
-0.93,1687245321.921875
3.31,1687245321.9375
7.78,1687245321.953125
11.69,1687245321.96875
14.22,1687245321.984375
14.90,1687245322.0
13.80,1687245322.015625
11.41,1687245322.03125
8.39,1687245322.046875
5.29,1687245322.0625
2.41,1687245322.078125
-0.02,1687245322.09375
-1.77,1687245322.109375
-2.47,1687245322.125
-1.86,1687245322.140625
0.01,1687245322.15625
2.60,1687245322.171875
5.04,1687245322.1875
6.44,1687245322.203125
6.29,1687245322.21875
4.55,1687245322.234375
1.59,1687245322.25
-2.18,1687245322.265625
-6.46,1687245322.28125
-11.11,1687245322.296875
-15.95,1687245322.3125
-20.68,1687245322.328125
-24.84,1687245322.34375
-28.00,1687245322.359375
-30.04,1687245322.375
-31.21,1687245322.390625
-32.03,1687245322.40625
-32.96,1687245322.421875
-34.10,1687245322.4375
-35.10,1687245322.453125
-35.24,1687245322.46875
-33.84,1687245322.484375
-30.60,1687245322.5
-25.78,1687245322.515625
-20.13,1687245322.53125
-14.57,1687245322.546875
-9.74,1687245322.5625
-5.84,1687245322.578125
-2.57,1687245322.59375
0.50,1687245322.609375
3.58,1687245322.625
6.58,1687245322.640625
9.21,1687245322.65625
11.36,1687245322.671875
13.23,1687245322.6875
15.31,1687245322.703125
18.00,1687245322.71875
21.28,1687245322.734375
24.69,1687245322.75
27.46,1687245322.765625
29.00,1687245322.78125
29.12,1687245322.796875
28.16,1687245322.8125
26.69,1687245322.828125
25.17,1687245322.84375
23.86,1687245322.859375
22.87,1687245322.875
22.33,1687245322.890625
22.42,1687245322.90625
23.22,1687245322.921875
24.56,1687245322.9375
25.93,1687245322.953125
26.65,1687245322.96875
26.26,1687245322.984375
24.78,1687245323.0
22.73,1687245323.015625
20.84,1687245323.03125
19.69,1687245323.046875
19.30,1687245323.0625
19.22,1687245323.078125
18.78,1687245323.09375
17.43,1687245323.109375
14.97,1687245323.125
11.53,1687245323.140625
7.35,1687245323.15625
2.67,1687245323.171875
-2.31,1687245323.1875
-7.24,1687245323.203125
-11.62,1687245323.21875
-14.93,1687245323.234375
-16.84,1687245323.25
-17.52,1687245323.265625
-17.56,1687245323.28125
-17.86,1687245323.296875
-19.25,1687245323.3125
-22.13,1687245323.328125
-26.34,1687245323.34375
-31.24,1687245323.359375
-35.88,1687245323.375
-39.31,1687245323.390625
-40.73,1687245323.40625
-39.68,1687245323.421875
-36.03,1687245323.4375
-30.03,1687245323.453125
-22.23,1687245323.46875
-13.48,1687245323.484375
-4.87,1687245323.5
2.38,1687245323.515625
7.19,1687245323.53125
8.89,1687245323.546875
7.51,1687245323.5625
3.87,1687245323.578125
-0.61,1687245323.59375
-4.35,1687245323.609375
-6.17,1687245323.625
-5.66,1687245323.640625
-3.18,1687245323.65625
0.47,1687245323.671875
4.40,1687245323.6875
7.97,1687245323.703125
10.85,1687245323.71875
12.91,1687245323.734375
14.12,1687245323.75
14.45,1687245323.765625
14.03,1687245323.78125
13.05,1687245323.796875
11.80,1687245323.8125
10.52,1687245323.828125
9.36,1687245323.84375
8.32,1687245323.859375
7.31,1687245323.875
6.22,1687245323.890625
4.97,1687245323.90625
3.44,1687245323.921875
1.53,1687245323.9375
-0.80,1687245323.953125
-3.45,1687245323.96875
-6.18,1687245323.984375
-8.63,1687245324.0
-10.51,1687245324.015625
-11.72,1687245324.03125
-12.43,1687245324.046875
-13.06,1687245324.0625
-14.06,1687245324.078125
-15.84,1687245324.09375
-18.60,1687245324.109375
-22.35,1687245324.125
-26.92,1687245324.140625
-31.93,1687245324.15625
-36.87,1687245324.171875
-41.12,1687245324.1875
-44.04,1687245324.203125
-45.14,1687245324.21875
-44.29,1687245324.234375
-41.76,1687245324.25
-38.12,1687245324.265625
-34.03,1687245324.28125
-29.95,1687245324.296875
-25.98,1687245324.3125
-21.86,1687245324.328125
-17.14,1687245324.34375
-11.52,1687245324.359375
-5.14,1687245324.375
1.46,1687245324.390625
7.43,1687245324.40625
12.03,1687245324.421875
14.91,1687245324.4375
16.23,1687245324.453125
16.58,1687245324.46875
16.61,1687245324.484375
16.81,1687245324.5
17.28,1687245324.515625
17.96,1687245324.53125
18.74,1687245324.546875
19.70,1687245324.5625
20.98,1687245324.578125
22.65,1687245324.59375
24.53,1687245324.609375
26.17,1687245324.625
27.08,1687245324.640625
26.98,1687245324.65625
25.95,1687245324.671875
24.34,1687245324.6875
22.53,1687245324.703125
20.78,1687245324.71875
19.15,1687245324.734375
17.55,1687245324.75
15.82,1687245324.765625
13.84,1687245324.78125
11.34,1687245324.796875
8.07,1687245324.8125
3.79,1687245324.828125
-1.45,1687245324.84375
-7.22,1687245324.859375
-12.80,1687245324.875
-17.56,1687245324.890625
-21.26,1687245324.90625
-24.18,1687245324.921875
-27.00,1687245324.9375
-30.32,1687245324.953125
-34.43,1687245324.96875
-39.18,1687245324.984375
-44.19,1687245325.0
-49.11,1687245325.015625
-53.73,1687245325.03125
-57.91,1687245325.046875
-61.30,1687245325.0625
-63.27,1687245325.078125
-63.05,1687245325.09375
-60.05,1687245325.109375
-54.26,1687245325.125
-46.24,1687245325.140625
-36.98,1687245325.15625
-27.41,1687245325.171875
-18.12,1687245325.1875
-9.24,1687245325.203125
-0.67,1687245325.21875
7.61,1687245325.234375
15.38,1687245325.25
22.20,1687245325.265625
27.70,1687245325.28125
31.72,1687245325.296875
34.33,1687245325.3125
35.72,1687245325.328125
36.00,1687245325.34375
35.26,1687245325.359375
33.67,1687245325.375
31.79,1687245325.390625
30.58,1687245325.40625
31.25,1687245325.421875
34.74,1687245325.4375
41.31,1687245325.453125
50.24,1687245325.46875
59.99,1687245325.484375
68.63,1687245325.5
74.34,1687245325.515625
75.93,1687245325.53125
72.92,1687245325.546875
65.65,1687245325.5625
55.00,1687245325.578125
42.29,1687245325.59375
28.99,1687245325.609375
16.62,1687245325.625
6.49,1687245325.640625
-0.44,1687245325.65625
-3.70,1687245325.671875
-3.49,1687245325.6875
-0.62,1687245325.703125
3.67,1687245325.71875
8.00,1687245325.734375
11.23,1687245325.75
12.69,1687245325.765625
12.30,1687245325.78125
10.43,1687245325.796875
7.65,1687245325.8125
4.36,1687245325.828125
0.74,1687245325.84375
-3.31,1687245325.859375
-7.89,1687245325.875
-12.77,1687245325.890625
-17.38,1687245325.90625
-20.78,1687245325.921875
-22.04,1687245325.9375
-20.53,1687245325.953125
-16.13,1687245325.96875
-9.11,1687245325.984375
0.03,1687245326.0
10.81,1687245326.015625
22.81,1687245326.03125
35.40,1687245326.046875
47.54,1687245326.0625
57.81,1687245326.078125
64.81,1687245326.09375
67.75,1687245326.109375
66.88,1687245326.125
63.35,1687245326.140625
58.56,1687245326.15625
53.21,1687245326.171875
46.82,1687245326.1875
37.86,1687245326.203125
24.77,1687245326.21875
7.12,1687245326.234375
-13.52,1687245326.25
-33.94,1687245326.265625
-50.38,1687245326.28125
-60.22,1687245326.296875
-63.02,1687245326.3125
-60.53,1687245326.328125
-55.61,1687245326.34375
-50.76,1687245326.359375
-47.10,1687245326.375
-44.29,1687245326.390625
-41.35,1687245326.40625
-37.62,1687245326.421875
-33.39,1687245326.4375
-29.74,1687245326.453125
-27.82,1687245326.46875
-28.05,1687245326.484375
-29.97,1687245326.5
-32.44,1687245326.515625
-34.31,1687245326.53125
-34.92,1687245326.546875
-34.19,1687245326.5625
-32.43,1687245326.578125
-30.10,1687245326.59375
-27.61,1687245326.609375
-25.42,1687245326.625
-24.02,1687245326.640625
-23.92,1687245326.65625
-25.48,1687245326.671875
-28.70,1687245326.6875
-33.27,1687245326.703125
-38.61,1687245326.71875
-44.15,1687245326.734375
-49.40,1687245326.75
-53.88,1687245326.765625
-57.00,1687245326.78125
-58.02,1687245326.796875
-56.21,1687245326.8125
-51.17,1687245326.828125
-43.06,1687245326.84375
-32.60,1687245326.859375
-20.87,1687245326.875
-8.88,1687245326.890625
2.64,1687245326.90625
13.25,1687245326.921875
22.78,1687245326.9375
31.07,1687245326.953125
37.93,1687245326.96875
43.20,1687245326.984375
46.88,1687245327.0
49.15,1687245327.015625
50.42,1687245327.03125
51.05,1687245327.046875
51.31,1687245327.0625
51.26,1687245327.078125
50.84,1687245327.09375
50.01,1687245327.109375
48.87,1687245327.125
47.73,1687245327.140625
47.03,1687245327.15625
47.16,1687245327.171875
48.24,1687245327.1875
49.97,1687245327.203125
51.72,1687245327.21875
52.72,1687245327.234375
52.35,1687245327.25
50.37,1687245327.265625
47.05,1687245327.28125
42.91,1687245327.296875
38.46,1687245327.3125
33.99,1687245327.328125
29.56,1687245327.34375
25.13,1687245327.359375
20.75,1687245327.375
16.59,1687245327.390625
12.82,1687245327.40625
9.47,1687245327.421875
6.29,1687245327.4375
2.96,1687245327.453125
-0.77,1687245327.46875
-4.88,1687245327.484375
-9.09,1687245327.5
-13.10,1687245327.515625
-16.76,1687245327.53125
-20.25,1687245327.546875
-23.91,1687245327.5625
-28.14,1687245327.578125
-33.16,1687245327.59375
-39.04,1687245327.609375
-45.65,1687245327.625
-52.68,1687245327.640625
-59.62,1687245327.65625
-65.73,1687245327.671875
-70.00,1687245327.6875
-71.53,1687245327.703125
-69.68,1687245327.71875
-64.45,1687245327.734375
-56.35,1687245327.75
-46.27,1687245327.765625
-35.12,1687245327.78125
-23.63,1687245327.796875
-12.35,1687245327.8125
-1.68,1687245327.828125
7.94,1687245327.84375
16.09,1687245327.859375
22.51,1687245327.875
27.21,1687245327.890625
30.55,1687245327.90625
33.08,1687245327.921875
35.31,1687245327.9375
37.48,1687245327.953125
39.54,1687245327.96875
41.31,1687245327.984375
42.66,1687245328.0
43.62,1687245328.015625
44.38,1687245328.03125
45.17,1687245328.046875
46.07,1687245328.0625
47.05,1687245328.078125
48.01,1687245328.09375
48.88,1687245328.109375
49.63,1687245328.125
50.26,1687245328.140625
50.69,1687245328.15625
50.74,1687245328.171875
50.18,1687245328.1875
48.77,1687245328.203125
46.44,1687245328.21875
43.27,1687245328.234375
39.49,1687245328.25
35.42,1687245328.265625
31.40,1687245328.28125
27.66,1687245328.296875
24.31,1687245328.3125
21.34,1687245328.328125
18.60,1687245328.34375
15.89,1687245328.359375
13.05,1687245328.375
9.92,1687245328.390625
6.38,1687245328.40625
2.30,1687245328.421875
-2.39,1687245328.4375
-7.61,1687245328.453125
-13.05,1687245328.46875
-18.18,1687245328.484375
-22.48,1687245328.5
-25.74,1687245328.515625
-28.22,1687245328.53125
-30.71,1687245328.546875
-34.10,1687245328.5625
-39.00,1687245328.578125
-45.38,1687245328.59375
-52.52,1687245328.609375
-59.25,1687245328.625
-64.38,1687245328.640625
-67.05,1687245328.65625
-66.88,1687245328.671875
-63.92,1687245328.6875
-58.41,1687245328.703125
-50.62,1687245328.71875
-40.91,1687245328.734375
-29.76,1687245328.75
-17.90,1687245328.765625
-6.19,1687245328.78125
4.51,1687245328.796875
13.55,1687245328.8125
20.64,1687245328.828125
25.78,1687245328.84375
29.18,1687245328.859375
31.07,1687245328.875
31.74,1687245328.890625
31.51,1687245328.90625
30.80,1687245328.921875
30.10,1687245328.9375
29.76,1687245328.953125
29.88,1687245328.96875
30.17,1687245328.984375
30.13,1687245329.0
29.28,1687245329.015625
27.54,1687245329.03125
25.33,1687245329.046875
23.35,1687245329.0625
22.31,1687245329.078125
22.39,1687245329.09375
23.14,1687245329.109375
23.59,1687245329.125
22.69,1687245329.140625
19.84,1687245329.15625
15.20,1687245329.171875
9.59,1687245329.1875
4.14,1687245329.203125
-0.28,1687245329.21875
-3.50,1687245329.234375
-6.22,1687245329.25
-9.67,1687245329.265625
-15.09,1687245329.28125
-22.97,1687245329.296875
-32.80,1687245329.3125
-43.14,1687245329.328125
-52.27,1687245329.34375
-58.99,1687245329.359375
-63.32,1687245329.375
-66.65,1687245329.390625
-71.19,1687245329.40625
-79.06,1687245329.421875
-91.28,1687245329.4375
-107.30,1687245329.453125
-125.08,1687245329.46875
-142.20,1687245329.484375
-156.52,1687245329.5
-166.87,1687245329.515625
-173.05,1687245329.53125
-175.42,1687245329.546875
-175.34,1687245329.5625
-175.55,1687245329.578125
-180.67,1687245329.59375
-196.59,1687245329.609375
-228.20,1687245329.625
-276.19,1687245329.640625
-335.09,1687245329.65625
-394.06,1687245329.671875
-441.04,1687245329.6875
-467.91,1687245329.703125
-473.80,1687245329.71875
-464.46,1687245329.734375
-447.99,1687245329.75
-429.74,1687245329.765625
-409.55,1687245329.78125
-383.10,1687245329.796875
-346.07,1687245329.8125
-297.95,1687245329.828125
-243.00,1687245329.84375
-187.48,1687245329.859375
-135.78,1687245329.875
-87.70,1687245329.890625
-38.99,1687245329.90625
15.48,1687245329.921875
78.16,1687245329.9375
147.26,1687245329.953125
217.95,1687245329.96875
284.68,1687245329.984375
343.96,1687245330.0
395.31,1687245330.015625
440.96,1687245330.03125
484.45,1687245330.046875
528.71,1687245330.0625
574.77,1687245330.078125
621.06,1687245330.09375
663.63,1687245330.109375
697.21,1687245330.125
717.09,1687245330.140625
721.06,1687245330.15625
710.76,1687245330.171875
691.35,1687245330.1875
669.73,1687245330.203125
652.01,1687245330.21875
641.32,1687245330.234375
637.27,1687245330.25
636.72,1687245330.265625
635.60,1687245330.28125
630.30,1687245330.296875
618.29,1687245330.3125
597.80,1687245330.328125
567.34,1687245330.34375
525.83,1687245330.359375
472.86,1687245330.375
409.42,1687245330.390625
338.16,1687245330.40625
263.10,1687245330.421875
188.59,1687245330.4375
118.32,1687245330.453125
54.52,1687245330.46875
-2.31,1687245330.484375
-53.06,1687245330.5
-99.53,1687245330.515625
-143.90,1687245330.53125
-188.28,1687245330.546875
-234.31,1687245330.5625
-282.54,1687245330.578125
-331.81,1687245330.59375
-378.98,1687245330.609375
-419.32,1687245330.625
-447.77,1687245330.640625
-460.68,1687245330.65625
-457.18,1687245330.671875
-439.58,1687245330.6875
-412.49,1687245330.703125
-381.13,1687245330.71875
-349.64,1687245330.734375
-320.23,1687245330.75
-293.38,1687245330.765625
-268.71,1687245330.78125
-245.92,1687245330.796875
-225.15,1687245330.8125
-206.77,1687245330.828125
-190.83,1687245330.84375
-176.79,1687245330.859375
-163.65,1687245330.875
-150.46,1687245330.890625
-136.77,1687245330.90625
-122.76,1687245330.921875
-109.16,1687245330.9375
-96.76,1687245330.953125
-85.95,1687245330.96875
-76.56,1687245330.984375
-67.95,1687245331.0
-59.40,1687245331.015625
-50.52,1687245331.03125
-41.46,1687245331.046875
-32.82,1687245331.0625
-25.47,1687245331.078125
-20.13,1687245331.09375
-17.13,1687245331.109375
-16.34,1687245331.125
-17.22,1687245331.140625
-18.96,1687245331.15625
-20.75,1687245331.171875
-21.91,1687245331.1875
-21.99,1687245331.203125
-20.93,1687245331.21875
-18.94,1687245331.234375
-16.53,1687245331.25
-14.35,1687245331.265625
-13.08,1687245331.28125
-13.23,1687245331.296875
-14.99,1687245331.3125
-18.11,1687245331.328125
-22.00,1687245331.34375
-25.88,1687245331.359375
-29.04,1687245331.375
-31.12,1687245331.390625
-32.15,1687245331.40625
-32.49,1687245331.421875
-32.66,1687245331.4375
-33.27,1687245331.453125
-34.82,1687245331.46875
-37.70,1687245331.484375
-42.04,1687245331.5
-47.58,1687245331.515625
-53.61,1687245331.53125
-59.06,1687245331.546875
-62.71,1687245331.5625
-63.47,1687245331.578125
-60.70,1687245331.59375
-54.26,1687245331.609375
-44.54,1687245331.625
-32.31,1687245331.640625
-18.60,1687245331.65625
-4.59,1687245331.671875
8.56,1687245331.6875
19.86,1687245331.703125
28.70,1687245331.71875
34.86,1687245331.734375
38.52,1687245331.75
40.09,1687245331.765625
40.10,1687245331.78125
39.09,1687245331.796875
37.57,1687245331.8125
36.01,1687245331.828125
34.74,1687245331.84375
33.83,1687245331.859375
33.09,1687245331.875
32.22,1687245331.890625
31.00,1687245331.90625
29.48,1687245331.921875
28.11,1687245331.9375
27.48,1687245331.953125
28.10,1687245331.96875
30.08,1687245331.984375
33.09,1687245332.0
36.44,1687245332.015625
39.40,1687245332.03125
41.40,1687245332.046875
42.05,1687245332.0625
41.21,1687245332.078125
38.88,1687245332.09375
35.14,1687245332.109375
30.16,1687245332.125
24.23,1687245332.140625
17.76,1687245332.15625
11.20,1687245332.171875
4.95,1687245332.1875
-0.90,1687245332.203125
-6.53,1687245332.21875
-12.36,1687245332.234375
-18.90,1687245332.25
-26.45,1687245332.265625
-34.89,1687245332.28125
-43.64,1687245332.296875
-51.76,1687245332.3125
-58.23,1687245332.328125
-62.32,1687245332.34375
-63.85,1687245332.359375
-63.36,1687245332.375
-61.95,1687245332.390625
-60.94,1687245332.40625
-61.38,1687245332.421875
-63.71,1687245332.4375
-67.50,1687245332.453125
-71.56,1687245332.46875
-74.32,1687245332.484375
-74.34,1687245332.5
-70.81,1687245332.515625
-63.80,1687245332.53125
-54.17,1687245332.546875
-43.13,1687245332.5625
-31.80,1687245332.578125
-20.88,1687245332.59375
-10.56,1687245332.609375
-0.86,1687245332.625
8.15,1687245332.640625
16.09,1687245332.65625
22.44,1687245332.671875
26.81,1687245332.6875
29.17,1687245332.703125
29.93,1687245332.71875
29.66,1687245332.734375
28.86,1687245332.75
27.73,1687245332.765625
26.32,1687245332.78125
24.64,1687245332.796875
22.86,1687245332.8125
21.37,1687245332.828125
20.56,1687245332.84375
20.70,1687245332.859375
21.78,1687245332.875
23.53,1687245332.890625
25.52,1687245332.90625
27.33,1687245332.921875
28.58,1687245332.9375
28.97,1687245332.953125
28.37,1687245332.96875
26.80,1687245332.984375
24.47,1687245333.0
21.71,1687245333.015625
18.89,1687245333.03125
16.20,1687245333.046875
13.59,1687245333.0625
10.73,1687245333.078125
7.26,1687245333.09375
2.87,1687245333.109375
-2.41,1687245333.125
-8.19,1687245333.140625
-13.86,1687245333.15625
-18.73,1687245333.171875
-22.37,1687245333.1875
-24.63,1687245333.203125
-25.78,1687245333.21875
-26.32,1687245333.234375
-26.92,1687245333.25
-28.24,1687245333.265625
-30.88,1687245333.28125
-35.17,1687245333.296875
-41.06,1687245333.3125
-48.08,1687245333.328125
-55.24,1687245333.34375
-61.34,1687245333.359375
-65.18,1687245333.375
-65.82,1687245333.390625
-62.80,1687245333.40625
-56.13,1687245333.421875
-46.32,1687245333.4375
-34.20,1687245333.453125
-20.73,1687245333.46875
-6.92,1687245333.484375
6.42,1687245333.5
18.68,1687245333.515625
29.50,1687245333.53125
38.65,1687245333.546875
45.99,1687245333.5625
51.47,1687245333.578125
55.09,1687245333.59375
57.03,1687245333.609375
57.55,1687245333.625
56.95,1687245333.640625
55.51,1687245333.65625
53.47,1687245333.671875
51.08,1687245333.6875
48.55,1687245333.703125
46.11,1687245333.71875
43.87,1687245333.734375
41.85,1687245333.75
40.04,1687245333.765625
38.47,1687245333.78125
37.33,1687245333.796875
36.81,1687245333.8125
36.94,1687245333.828125
37.43,1687245333.84375
37.72,1687245333.859375
37.20,1687245333.875
35.49,1687245333.890625
32.63,1687245333.90625
29.01,1687245333.921875
25.15,1687245333.9375
21.46,1687245333.953125
18.11,1687245333.96875
15.10,1687245333.984375
12.39,1687245334.0
9.89,1687245334.015625
7.48,1687245334.03125
4.91,1687245334.046875
1.90,1687245334.0625
-1.70,1687245334.078125
-5.78,1687245334.09375
-10.01,1687245334.109375
-14.04,1687245334.125
-17.71,1687245334.140625
-21.23,1687245334.15625
-25.04,1687245334.171875
-29.55,1687245334.1875
-34.89,1687245334.203125
-40.79,1687245334.21875
-46.63,1687245334.234375
-51.59,1687245334.25
-54.86,1687245334.265625
-55.71,1687245334.28125
-53.69,1687245334.296875
-48.72,1687245334.3125
-41.14,1687245334.328125
-31.65,1687245334.34375
-21.19,1687245334.359375
-10.67,1687245334.375
-0.81,1687245334.390625
7.93,1687245334.40625
15.28,1687245334.421875
21.08,1687245334.4375
25.25,1687245334.453125
27.80,1687245334.46875
28.87,1687245334.484375
28.75,1687245334.5
27.90,1687245334.515625
26.83,1687245334.53125
25.94,1687245334.546875
25.43,1687245334.5625
25.22,1687245334.578125
25.06,1687245334.59375
24.74,1687245334.609375
24.21,1687245334.625
23.68,1687245334.640625
23.47,1687245334.65625
23.76,1687245334.671875
24.44,1687245334.6875
25.01,1687245334.703125
24.91,1687245334.71875
23.71,1687245334.734375
21.37,1687245334.75
18.21,1687245334.765625
14.73,1687245334.78125
11.25,1687245334.796875
7.83,1687245334.8125
4.30,1687245334.828125
0.43,1687245334.84375
-3.77,1687245334.859375
-8.10,1687245334.875
-12.16,1687245334.890625
-15.64,1687245334.90625
-18.38,1687245334.921875
-20.49,1687245334.9375
-22.27,1687245334.953125
-24.06,1687245334.96875
-26.21,1687245334.984375
-29.01,1687245335.0
-32.72,1687245335.015625
-37.43,1687245335.03125
-43.06,1687245335.046875
-49.12,1687245335.0625
-54.78,1687245335.078125
-58.92,1687245335.09375
-60.45,1687245335.109375
-58.67,1687245335.125
-53.44,1687245335.140625
-45.20,1687245335.15625
-34.76,1687245335.171875
-22.98,1687245335.1875
-10.59,1687245335.203125
1.82,1687245335.21875
13.68,1687245335.234375
24.30,1687245335.25
32.90,1687245335.265625
38.77,1687245335.28125
41.50,1687245335.296875
41.25,1687245335.3125
38.68,1687245335.328125
34.77,1687245335.34375
30.54,1687245335.359375
26.75,1687245335.375
23.80,1687245335.390625
21.87,1687245335.40625
20.98,1687245335.421875
21.12,1687245335.4375
22.23,1687245335.453125
24.16,1687245335.46875
26.61,1687245335.484375
29.13,1687245335.5
31.25,1687245335.515625
32.52,1687245335.53125
32.66,1687245335.546875
31.54,1687245335.5625
29.25,1687245335.578125
26.07,1687245335.59375
22.40,1687245335.609375
18.70,1687245335.625
15.33,1687245335.640625
12.36,1687245335.65625
9.53,1687245335.671875
6.36,1687245335.6875
2.48,1687245335.703125
-2.13,1687245335.71875
-6.99,1687245335.734375
-11.36,1687245335.75
-14.64,1687245335.765625
-16.68,1687245335.78125
-17.87,1687245335.796875
-18.95,1687245335.8125
-20.65,1687245335.828125
-23.47,1687245335.84375
-27.69,1687245335.859375
-33.51,1687245335.875
-41.13,1687245335.890625
-50.54,1687245335.90625
-61.14,1687245335.921875
-71.55,1687245335.9375
-79.71,1687245335.953125
-83.57,1687245335.96875
-81.92,1687245335.984375
-74.97,1687245336.0
-64.40,1687245336.015625
-52.66,1687245336.03125
-42.17,1687245336.046875
-34.47,1687245336.0625
-29.84,1687245336.078125
-27.34,1687245336.09375
-25.28,1687245336.109375
-21.89,1687245336.125
-15.94,1687245336.140625
-7.18,1687245336.15625
3.47,1687245336.171875
14.26,1687245336.1875
23.11,1687245336.203125
28.24,1687245336.21875
28.69,1687245336.234375
24.47,1687245336.25
16.42,1687245336.265625
5.92,1687245336.28125
-5.42,1687245336.296875
-16.09,1687245336.3125
-24.72,1687245336.328125
-30.32,1687245336.34375
-32.49,1687245336.359375
-31.66,1687245336.375
-29.13,1687245336.390625
-26.89,1687245336.40625
-26.91,1687245336.421875
-30.39,1687245336.4375
-37.18,1687245336.453125
-45.95,1687245336.46875
-55.09,1687245336.484375
-63.78,1687245336.5
-72.59,1687245336.515625
-83.12,1687245336.53125
-96.68,1687245336.546875
-112.83,1687245336.5625
-128.78,1687245336.578125
-140.10,1687245336.59375
-142.49,1687245336.609375
-133.65,1687245336.625
-114.11,1687245336.640625
-86.56,1687245336.65625
-54.09,1687245336.671875
-18.80,1687245336.6875
18.38,1687245336.703125
56.76,1687245336.71875
94.46,1687245336.734375
127.87,1687245336.75
152.44,1687245336.765625
164.48,1687245336.78125
162.95,1687245336.796875
150.17,1687245336.8125
131.14,1687245336.828125
111.79,1687245336.84375
97.13,1687245336.859375
89.90,1687245336.875
90.39,1687245336.890625
97.15,1687245336.90625
107.98,1687245336.921875
120.85,1687245336.9375
134.37,1687245336.953125
147.83,1687245336.96875
161.00,1687245336.984375
173.79,1687245337.0
186.00,1687245337.015625
197.26,1687245337.03125
206.93,1687245337.046875
214.27,1687245337.0625
218.57,1687245337.078125
219.17,1687245337.09375
215.63,1687245337.109375
207.81,1687245337.125
195.97,1687245337.140625
180.73,1687245337.15625
163.00,1687245337.171875
143.82,1687245337.1875
124.12,1687245337.203125
104.64,1687245337.21875
85.90,1687245337.234375
68.17,1687245337.25
51.48,1687245337.265625
35.61,1687245337.28125
20.16,1687245337.296875
4.65,1687245337.3125
-11.27,1687245337.328125
-27.62,1687245337.34375
-44.02,1687245337.359375
-59.68,1687245337.375
-73.67,1687245337.390625
-85.25,1687245337.40625
-94.14,1687245337.421875
-100.62,1687245337.4375
-105.41,1687245337.453125
-109.34,1687245337.46875
-112.90,1687245337.484375
-116.15,1687245337.5
-118.72,1687245337.515625
-120.18,1687245337.53125
-120.36,1687245337.546875
-119.59,1687245337.5625
-118.58,1687245337.578125
-118.05,1687245337.59375
-118.47,1687245337.609375
-119.81,1687245337.625
-121.54,1687245337.640625
-122.87,1687245337.65625
-123.02,1687245337.671875
-121.36,1687245337.6875
-117.53,1687245337.703125
-111.44,1687245337.71875
-103.26,1687245337.734375
-93.40,1687245337.75
-82.38,1687245337.765625
-70.85,1687245337.78125
-59.47,1687245337.796875
-48.79,1687245337.8125
-39.21,1687245337.828125
-30.95,1687245337.84375
-24.04,1687245337.859375
-18.33,1687245337.875
-13.59,1687245337.890625
-9.54,1687245337.90625
-5.93,1687245337.921875
-2.60,1687245337.9375
0.47,1687245337.953125
3.24,1687245337.96875
5.61,1687245337.984375
7.50,1687245338.0
8.93,1687245338.015625
9.98,1687245338.03125
10.73,1687245338.046875
11.26,1687245338.0625
11.52,1687245338.078125
11.39,1687245338.09375
10.81,1687245338.109375
9.72,1687245338.125
8.15,1687245338.140625
6.24,1687245338.15625
4.11,1687245338.171875
1.91,1687245338.1875
-0.32,1687245338.203125
-2.69,1687245338.21875
-5.42,1687245338.234375
-8.80,1687245338.25
-12.98,1687245338.265625
-17.97,1687245338.28125
-23.46,1687245338.296875
-28.99,1687245338.3125
-34.12,1687245338.328125
-38.62,1687245338.34375
-42.65,1687245338.359375
-46.63,1687245338.375
-51.13,1687245338.390625
-56.58,1687245338.40625
-63.07,1687245338.421875
-70.22,1687245338.4375
-77.35,1687245338.453125
-83.65,1687245338.46875
-88.32,1687245338.484375
-90.77,1687245338.5
-90.60,1687245338.515625
-87.66,1687245338.53125
-82.00,1687245338.546875
-73.82,1687245338.5625
-63.50,1687245338.578125
-51.59,1687245338.59375
-38.71,1687245338.609375
-25.44,1687245338.625
-12.22,1687245338.640625
0.69,1687245338.65625
13.10,1687245338.671875
24.84,1687245338.6875
35.63,1687245338.703125
45.12,1687245338.71875
52.99,1687245338.734375
59.00,1687245338.75
63.11,1687245338.765625
65.36,1687245338.78125
65.84,1687245338.796875
64.68,1687245338.8125
62.11,1687245338.828125
58.52,1687245338.84375
54.34,1687245338.859375
50.05,1687245338.875
45.90,1687245338.890625
41.93,1687245338.90625
37.91,1687245338.921875
33.61,1687245338.9375
28.83,1687245338.953125
23.50,1687245338.96875
17.64,1687245338.984375
11.29,1687245339.0
4.49,1687245339.015625
-2.77,1687245339.03125
-10.40,1687245339.046875
-18.26,1687245339.0625
-26.12,1687245339.078125
-33.68,1687245339.09375
-40.66,1687245339.109375
-46.76,1687245339.125
-51.77,1687245339.140625
-55.59,1687245339.15625
-58.21,1687245339.171875
-59.72,1687245339.1875
-60.26,1687245339.203125
-59.92,1687245339.21875
-58.62,1687245339.234375
-56.15,1687245339.25
-52.17,1687245339.265625
-46.48,1687245339.28125
-39.05,1687245339.296875
-30.10,1687245339.3125
-20.12,1687245339.328125
-9.71,1687245339.34375
0.47,1687245339.359375
9.85,1687245339.375
17.96,1687245339.390625
24.47,1687245339.40625
29.20,1687245339.421875
32.18,1687245339.4375
33.60,1687245339.453125
33.81,1687245339.46875
33.16,1687245339.484375
31.91,1687245339.5
30.14,1687245339.515625
27.79,1687245339.53125
24.80,1687245339.546875
21.20,1687245339.5625
17.21,1687245339.578125
13.16,1687245339.59375
9.37,1687245339.609375
6.03,1687245339.625
3.14,1687245339.640625
0.67,1687245339.65625
-1.36,1687245339.671875
-2.80,1687245339.6875
-3.37,1687245339.703125
-2.82,1687245339.71875
-1.05,1687245339.734375
1.83,1687245339.75
5.63,1687245339.765625
10.15,1687245339.78125
15.22,1687245339.796875
20.59,1687245339.8125
25.90,1687245339.828125
30.66,1687245339.84375
34.35,1687245339.859375
36.71,1687245339.875
37.78,1687245339.890625
37.87,1687245339.90625
37.31,1687245339.921875
36.35,1687245339.9375
34.91,1687245339.953125
32.75,1687245339.96875
29.60,1687245339.984375
25.30,1687245340.0
19.95,1687245340.015625
13.90,1687245340.03125
7.67,1687245340.046875
1.92,1687245340.0625
-2.63,1687245340.078125
-5.36,1687245340.09375
-5.87,1687245340.109375
-4.16,1687245340.125
-0.57,1687245340.140625
4.25,1687245340.15625
9.57,1687245340.171875
14.76,1687245340.1875
19.35,1687245340.203125
23.12,1687245340.21875
25.93,1687245340.234375
27.73,1687245340.25
28.47,1687245340.265625
28.17,1687245340.28125
26.95,1687245340.296875
25.02,1687245340.3125
22.72,1687245340.328125
20.33,1687245340.34375
18.04,1687245340.359375
15.86,1687245340.375
13.69,1687245340.390625
11.39,1687245340.40625
8.91,1687245340.421875
6.31,1687245340.4375
3.72,1687245340.453125
1.21,1687245340.46875
-1.26,1687245340.484375
-3.85,1687245340.5
-6.77,1687245340.515625
-10.16,1687245340.53125
-14.04,1687245340.546875
-18.36,1687245340.5625
-23.09,1687245340.578125
-28.20,1687245340.59375
-33.71,1687245340.609375
-39.54,1687245340.625
-45.55,1687245340.640625
-51.53,1687245340.65625
-57.34,1687245340.671875
-62.95,1687245340.6875
-68.41,1687245340.703125
-73.82,1687245340.71875
-79.24,1687245340.734375
-84.57,1687245340.75
-89.56,1687245340.765625
-93.85,1687245340.78125
-96.96,1687245340.796875
-98.35,1687245340.8125
-97.47,1687245340.828125
-93.91,1687245340.84375
-87.47,1687245340.859375
-78.39,1687245340.875
-67.29,1687245340.890625
-55.12,1687245340.90625
-42.95,1687245340.921875
-31.78,1687245340.9375
-22.37,1687245340.953125
-15.27,1687245340.96875
-10.73,1687245340.984375
-8.81,1687245341.0
-9.32,1687245341.015625
-11.86,1687245341.03125
-15.84,1687245341.046875
-20.68,1687245341.0625
-25.90,1687245341.078125
-31.31,1687245341.09375
-36.94,1687245341.109375
-42.88,1687245341.125
-49.09,1687245341.140625
-55.15,1687245341.15625
-60.32,1687245341.171875
-63.85,1687245341.1875
-65.23,1687245341.203125
-64.33,1687245341.21875
-61.42,1687245341.234375
-56.79,1687245341.25
-50.53,1687245341.265625
-42.40,1687245341.28125
-32.07,1687245341.296875
-19.40,1687245341.3125
-4.68,1687245341.328125
11.39,1687245341.34375
28.01,1687245341.359375
44.55,1687245341.375
60.38,1687245341.390625
74.49,1687245341.40625
85.13,1687245341.421875
90.06,1687245341.4375
87.42,1687245341.453125
76.71,1687245341.46875
59.42,1687245341.484375
38.66,1687245341.5
17.86,1687245341.515625
-0.59,1687245341.53125
-16.20,1687245341.546875
-30.09,1687245341.5625
-43.87,1687245341.578125
-58.45,1687245341.59375
-73.51,1687245341.609375
-87.94,1687245341.625
-100.91,1687245341.640625
-112.71,1687245341.65625
-124.72,1687245341.671875
-138.54,1687245341.6875
-154.79,1687245341.703125
-172.17,1687245341.71875
-187.63,1687245341.734375
-197.27,1687245341.75
-197.73,1687245341.765625
-187.43,1687245341.78125
-167.01,1687245341.796875
-138.69,1687245341.8125
-105.23,1687245341.828125
-68.92,1687245341.84375
-31.14,1687245341.859375
7.47,1687245341.875
46.39,1687245341.890625
84.84,1687245341.90625
121.64,1687245341.921875
155.56,1687245341.9375
185.72,1687245341.953125
211.71,1687245341.96875
233.61,1687245341.984375
251.66,1687245342.0
266.02,1687245342.015625
276.61,1687245342.03125
283.19,1687245342.046875
285.39,1687245342.0625
283.01,1687245342.078125
276.24,1687245342.09375
265.71,1687245342.109375
252.49,1687245342.125
237.87,1687245342.140625
222.94,1687245342.15625
208.36,1687245342.171875
194.20,1687245342.1875
180.25,1687245342.203125
166.23,1687245342.21875
152.12,1687245342.234375
138.05,1687245342.25
124.21,1687245342.265625
110.58,1687245342.28125
96.95,1687245342.296875
83.12,1687245342.3125
69.12,1687245342.328125
55.31,1687245342.34375
42.30,1687245342.359375
30.80,1687245342.375
21.45,1687245342.390625
14.64,1687245342.40625
10.51,1687245342.421875
8.87,1687245342.4375
9.25,1687245342.453125
10.95,1687245342.46875
13.22,1687245342.484375
15.46,1687245342.5
17.36,1687245342.515625
18.82,1687245342.53125
19.86,1687245342.546875
20.47,1687245342.5625
20.60,1687245342.578125
20.21,1687245342.59375
19.43,1687245342.609375
18.49,1687245342.625
17.60,1687245342.640625
16.85,1687245342.65625
16.09,1687245342.671875
15.09,1687245342.6875
13.70,1687245342.703125
11.96,1687245342.71875
10.08,1687245342.734375
8.35,1687245342.75
6.93,1687245342.765625
5.80,1687245342.78125
4.86,1687245342.796875
3.95,1687245342.8125
2.98,1687245342.828125
1.94,1687245342.84375
0.75,1687245342.859375
-0.68,1687245342.875
-2.53,1687245342.890625
-5.00,1687245342.90625
-8.19,1687245342.921875
-11.98,1687245342.9375
-16.12,1687245342.953125
-20.22,1687245342.96875
-23.99,1687245342.984375
-27.31,1687245343.0
-30.28,1687245343.015625
-33.12,1687245343.03125
-35.94,1687245343.046875
-38.65,1687245343.0625
-40.93,1687245343.078125
-42.41,1687245343.09375
-42.87,1687245343.109375
-42.35,1687245343.125
-41.13,1687245343.140625
-39.61,1687245343.15625
-38.13,1687245343.171875
-36.86,1687245343.1875
-35.73,1687245343.203125
-34.47,1687245343.21875
-32.68,1687245343.234375
-29.83,1687245343.25
-25.43,1687245343.265625
-19.23,1687245343.28125
-11.26,1687245343.296875
-1.93,1687245343.3125
8.08,1687245343.328125
18.02,1687245343.34375
27.23,1687245343.359375
35.21,1687245343.375
41.57,1687245343.390625
46.05,1687245343.40625
48.49,1687245343.421875
48.94,1687245343.4375
47.73,1687245343.453125
45.30,1687245343.46875
42.15,1687245343.484375
38.60,1687245343.5
34.78,1687245343.515625
30.71,1687245343.53125
26.39,1687245343.546875
21.99,1687245343.5625
17.77,1687245343.578125
13.98,1687245343.59375
10.73,1687245343.609375
7.93,1687245343.625
5.41,1687245343.640625
2.93,1687245343.65625
0.39,1687245343.671875
-2.19,1687245343.6875
-4.70,1687245343.703125
-7.02,1687245343.71875
-9.11,1687245343.734375
-10.99,1687245343.75
-12.81,1687245343.765625
-14.75,1687245343.78125
-16.99,1687245343.796875
-19.66,1687245343.8125
-22.83,1687245343.828125
-26.54,1687245343.84375
-30.73,1687245343.859375
-35.29,1687245343.875
-39.99,1687245343.890625
-44.54,1687245343.90625
-48.62,1687245343.921875
-52.05,1687245343.9375
-54.80,1687245343.953125
-57.09,1687245343.96875
-59.24,1687245343.984375
-61.52,1687245344.0
-64.10,1687245344.015625
-66.86,1687245344.03125
-69.45,1687245344.046875
-71.33,1687245344.0625
-71.84,1687245344.078125
-70.44,1687245344.09375
-66.76,1687245344.109375
-60.91,1687245344.125
-53.33,1687245344.140625
-44.82,1687245344.15625
-36.23,1687245344.171875
-28.21,1687245344.1875
-21.06,1687245344.203125
-14.71,1687245344.21875
-8.98,1687245344.234375
-3.64,1687245344.25
1.35,1687245344.265625
5.98,1687245344.28125
10.19,1687245344.296875
13.99,1687245344.3125
17.46,1687245344.328125
20.73,1687245344.34375
23.88,1687245344.359375
26.90,1687245344.375
29.66,1687245344.390625
31.98,1687245344.40625
33.69,1687245344.421875
34.69,1687245344.4375
35.00,1687245344.453125
34.76,1687245344.46875
34.15,1687245344.484375
33.30,1687245344.5
32.15,1687245344.515625
30.50,1687245344.53125
28.12,1687245344.546875
24.91,1687245344.5625
21.03,1687245344.578125
16.89,1687245344.59375
13.04,1687245344.609375
9.88,1687245344.625
7.53,1687245344.640625
5.81,1687245344.65625
4.35,1687245344.671875
2.83,1687245344.6875
1.08,1687245344.703125
-0.79,1687245344.71875
-2.57,1687245344.734375
-4.04,1687245344.75
-5.14,1687245344.765625
-5.97,1687245344.78125
-6.80,1687245344.796875
-7.91,1687245344.8125
-9.54,1687245344.828125
-11.84,1687245344.84375
-14.91,1687245344.859375
-18.67,1687245344.875
-22.94,1687245344.890625
-27.37,1687245344.90625
-31.51,1687245344.921875
-34.91,1687245344.9375
-37.23,1687245344.953125
-38.40,1687245344.96875
-38.54,1687245344.984375
-37.85,1687245345.0
-36.45,1687245345.015625
-34.36,1687245345.03125
-31.49,1687245345.046875
-27.85,1687245345.0625
-23.58,1687245345.078125
-19.00,1687245345.09375
-14.45,1687245345.109375
-10.22,1687245345.125
-6.36,1687245345.140625
-2.82,1687245345.15625
0.48,1687245345.171875
3.56,1687245345.1875
6.30,1687245345.203125
8.50,1687245345.21875
9.96,1687245345.234375
10.58,1687245345.25
10.41,1687245345.265625
9.60,1687245345.28125
8.48,1687245345.296875
7.38,1687245345.3125
6.61,1687245345.328125
6.25,1687245345.34375
6.16,1687245345.359375
5.98,1687245345.375
5.29,1687245345.390625
3.84,1687245345.40625
1.60,1687245345.421875
-1.29,1687245345.4375
-4.50,1687245345.453125
-7.66,1687245345.46875
-10.46,1687245345.484375
-12.62,1687245345.5
-13.95,1687245345.515625
-14.38,1687245345.53125
-13.98,1687245345.546875
-13.00,1687245345.5625
-11.75,1687245345.578125
-10.58,1687245345.59375
-9.73,1687245345.609375
-9.43,1687245345.625
-9.81,1687245345.640625
-10.97,1687245345.65625
-12.98,1687245345.671875
-15.73,1687245345.6875
-18.95,1687245345.703125
-22.18,1687245345.71875
-24.88,1687245345.734375
-26.53,1687245345.75
-26.77,1687245345.765625
-25.50,1687245345.78125
-22.87,1687245345.796875
-19.30,1687245345.8125
-15.33,1687245345.828125
-11.46,1687245345.84375
-8.00,1687245345.859375
-4.97,1687245345.875
-2.23,1687245345.890625
0.39,1687245345.90625
2.86,1687245345.921875
4.92,1687245345.9375
6.22,1687245345.953125
6.53,1687245345.96875
5.93,1687245345.984375
4.77,1687245346.0
3.51,1687245346.015625
2.44,1687245346.03125
1.56,1687245346.046875
0.66,1687245346.0625
-0.51,1687245346.078125
-2.10,1687245346.09375
-4.00,1687245346.109375
-6.00,1687245346.125
-7.86,1687245346.140625
-9.46,1687245346.15625
-10.77,1687245346.171875
-11.89,1687245346.1875
-12.97,1687245346.203125
-14.15,1687245346.21875
-15.58,1687245346.234375
-17.33,1687245346.25
-19.38,1687245346.265625
-21.57,1687245346.28125
-23.61,1687245346.296875
-25.12,1687245346.3125
-25.69,1687245346.328125
-25.01,1687245346.34375
-22.80,1687245346.359375
-18.91,1687245346.375
-13.30,1687245346.390625
-6.15,1687245346.40625
2.10,1687245346.421875
10.75,1687245346.4375
18.89,1687245346.453125
25.53,1687245346.46875
29.85,1687245346.484375
31.36,1687245346.5
30.05,1687245346.515625
26.34,1687245346.53125
21.03,1687245346.546875
15.09,1687245346.5625
9.45,1687245346.578125
4.80,1687245346.59375
1.49,1687245346.609375
-0.49,1687245346.625
-1.43,1687245346.640625
-1.81,1687245346.65625
-2.07,1687245346.671875
-2.39,1687245346.6875
-2.73,1687245346.703125
-2.94,1687245346.71875
-2.85,1687245346.734375
-2.35,1687245346.75
-1.48,1687245346.765625
-0.41,1687245346.78125
0.64,1687245346.796875
1.57,1687245346.8125
2.53,1687245346.828125
3.81,1687245346.84375
5.80,1687245346.859375
8.77,1687245346.875
12.85,1687245346.890625
17.91,1687245346.90625
23.66,1687245346.921875
29.72,1687245346.9375
35.79,1687245346.953125
41.81,1687245346.96875
47.70,1687245346.984375
53.21,1687245347.0
57.91,1687245347.015625
61.29,1687245347.03125
62.92,1687245347.046875
62.56,1687245347.0625
60.38,1687245347.078125
56.96,1687245347.09375
53.61,1687245347.109375
51.43,1687245347.125
50.75,1687245347.140625
51.12,1687245347.15625
51.62,1687245347.171875
51.32,1687245347.1875
49.71,1687245347.203125
47.01,1687245347.21875
44.04,1687245347.234375
42.95,1687245347.25
45.31,1687245347.265625
51.41,1687245347.28125
60.50,1687245347.296875
71.49,1687245347.3125
83.39,1687245347.328125
95.32,1687245347.34375
106.76,1687245347.359375
117.37,1687245347.375
128.55,1687245347.390625
141.17,1687245347.40625
154.99,1687245347.421875
168.91,1687245347.4375
181.64,1687245347.453125
191.82,1687245347.46875
197.89,1687245347.484375
198.81,1687245347.5
193.93,1687245347.515625
185.34,1687245347.53125
175.13,1687245347.546875
164.68,1687245347.5625
155.16,1687245347.578125
147.90,1687245347.59375
143.90,1687245347.609375
142.99,1687245347.625
144.25,1687245347.640625
131.30,1687245347.65625
95.39,1687245347.671875
38.96,1687245347.6875
-26.28,1687245347.703125
-88.15,1687245347.71875
-139.85,1687245347.734375
-179.33,1687245347.75
-209.58,1687245347.765625
-233.28,1687245347.78125
-250.50,1687245347.796875
-258.61,1687245347.8125
-256.49,1687245347.828125
-246.16,1687245347.84375
-232.27,1687245347.859375
-214.97,1687245347.875
-190.00,1687245347.890625
-157.29,1687245347.90625
-119.43,1687245347.921875
-81.12,1687245347.9375
-45.64,1687245347.953125
-14.96,1687245347.96875
7.14,1687245347.984375
21.74,1687245348.0
29.18,1687245348.015625
28.60,1687245348.03125
18.31,1687245348.046875
-2.48,1687245348.0625
-30.76,1687245348.078125
-63.19,1687245348.09375
-97.31,1687245348.109375
-131.74,1687245348.125
-166.38,1687245348.140625
-202.94,1687245348.15625
-243.71,1687245348.171875
-290.19,1687245348.1875
-340.78,1687245348.203125
-391.04,1687245348.21875
-434.99,1687245348.234375
-466.93,1687245348.25
-481.52,1687245348.265625
-475.76,1687245348.28125
-450.62,1687245348.296875
-410.60,1687245348.3125
-362.07,1687245348.328125
-310.75,1687245348.34375
-260.95,1687245348.359375
-215.66,1687245348.375
-176.84,1687245348.390625
-142.84,1687245348.40625
-110.84,1687245348.421875
-79.03,1687245348.4375
-47.35,1687245348.453125
-16.53,1687245348.46875
13.44,1687245348.484375
43.28,1687245348.5
73.58,1687245348.515625
104.42,1687245348.53125
139.01,1687245348.546875
180.96,1687245348.5625
231.87,1687245348.578125
290.65,1687245348.59375
354.91,1687245348.609375
422.79,1687245348.625
493.83,1687245348.640625
568.77,1687245348.65625
626.64,1687245348.671875
648.77,1687245348.6875
627.92,1687245348.703125
571.49,1687245348.71875
491.85,1687245348.734375
397.51,1687245348.75
293.91,1687245348.765625
187.87,1687245348.78125
88.91,1687245348.796875
5.81,1687245348.8125
-52.93,1687245348.828125
-84.83,1687245348.84375
-95.01,1687245348.859375
-94.38,1687245348.875
-93.54,1687245348.890625
-99.15,1687245348.90625
-113.60,1687245348.921875
-136.01,1687245348.9375
-163.95,1687245348.953125
-190.52,1687245348.96875
-207.49,1687245348.984375
-208.06,1687245349.0
-189.15,1687245349.015625
-152.36,1687245349.03125
-103.15,1687245349.046875
-49.63,1687245349.0625
0.56,1687245349.078125
36.91,1687245349.09375
53.68,1687245349.109375
51.40,1687245349.125
35.86,1687245349.140625
15.25,1687245349.15625
-3.61,1687245349.171875
-17.69,1687245349.1875
-28.04,1687245349.203125
-38.19,1687245349.21875
-51.79,1687245349.234375
-68.81,1687245349.25
-86.01,1687245349.265625
-99.59,1687245349.28125
-104.17,1687245349.296875
-97.51,1687245349.3125
-82.75,1687245349.328125
-66.75,1687245349.34375
-54.96,1687245349.359375
-48.34,1687245349.375
-45.02,1687245349.390625
-40.27,1687245349.40625
-31.93,1687245349.421875
-20.57,1687245349.4375
-8.65,1687245349.453125
1.49,1687245349.46875
9.38,1687245349.484375
15.41,1687245349.5
20.26,1687245349.515625
24.83,1687245349.53125
30.41,1687245349.546875
37.96,1687245349.5625
47.93,1687245349.578125
59.14,1687245349.59375
69.00,1687245349.609375
74.96,1687245349.625
76.04,1687245349.640625
73.59,1687245349.65625
70.95,1687245349.671875
71.86,1687245349.6875
78.20,1687245349.703125
89.18,1687245349.71875
101.58,1687245349.734375
111.61,1687245349.75
116.78,1687245349.765625
116.74,1687245349.78125
112.48,1687245349.796875
104.97,1687245349.8125
94.37,1687245349.828125
79.84,1687245349.84375
60.35,1687245349.859375
35.39,1687245349.875
5.11,1687245349.890625
-29.90,1687245349.90625
-68.65,1687245349.921875
-109.92,1687245349.9375
-152.10,1687245349.953125
-192.73,1687245349.96875
-228.89,1687245349.984375
-257.76,1687245350.0
-277.53,1687245350.015625
-287.97,1687245350.03125
-290.16,1687245350.046875
-285.59,1687245350.0625
-275.17,1687245350.078125
-258.86,1687245350.09375
-236.04,1687245350.109375
-206.42,1687245350.125
-170.73,1687245350.140625
-130.81,1687245350.15625
-89.15,1687245350.171875
-47.92,1687245350.1875
-8.52,1687245350.203125
28.28,1687245350.21875
61.99,1687245350.234375
91.87,1687245350.25
116.98,1687245350.265625
136.52,1687245350.28125
150.27,1687245350.296875
158.73,1687245350.3125
162.82,1687245350.328125
163.40,1687245350.34375
160.94,1687245350.359375
155.67,1687245350.375
147.94,1687245350.390625
138.47,1687245350.40625
128.44,1687245350.421875
119.12,1687245350.4375
111.50,1687245350.453125
105.99,1687245350.46875
102.53,1687245350.484375
100.85,1687245350.5
100.69,1687245350.515625
101.93,1687245350.53125
104.31,1687245350.546875
107.38,1687245350.5625
110.39,1687245350.578125
112.43,1687245350.59375
112.68,1687245350.609375
110.65,1687245350.625
106.43,1687245350.640625
100.66,1687245350.65625
94.34,1687245350.671875
88.30,1687245350.6875
82.80,1687245350.703125
77.40,1687245350.71875
71.15,1687245350.734375
63.08,1687245350.75
52.69,1687245350.765625
40.39,1687245350.78125
27.47,1687245350.796875
15.44,1687245350.8125
5.27,1687245350.828125
-3.12,1687245350.84375
-10.64,1687245350.859375
-18.61,1687245350.875
-28.10,1687245350.890625
-39.82,1687245350.90625
-53.51,1687245350.921875
-68.08,1687245350.9375
-81.95,1687245350.953125
-93.67,1687245350.96875
-102.62,1687245350.984375
-108.91,1687245351.0
-113.62,1687245351.015625
-118.57,1687245351.03125
-126.28,1687245351.046875
-138.82,1687245351.0625
-156.87,1687245351.078125
-179.13,1687245351.09375
-202.38,1687245351.109375
-222.16,1687245351.125
-233.18,1687245351.140625
-231.39,1687245351.15625
-215.70,1687245351.171875
-189.22,1687245351.1875
-157.85,1687245351.203125
-127.86,1687245351.21875
-103.65,1687245351.234375
-86.62,1687245351.25
-75.73,1687245351.265625
-67.48,1687245351.28125
-57.95,1687245351.296875
-40.01,1687245351.3125
-9.53,1687245351.328125
33.27,1687245351.34375
84.51,1687245351.359375
139.11,1687245351.375
191.89,1687245351.390625
236.80,1687245351.40625
268.61,1687245351.421875
283.09,1687245351.4375
278.92,1687245351.453125
257.80,1687245351.46875
223.87,1687245351.484375
182.58,1687245351.5
139.16,1687245351.515625
100.00,1687245351.53125
64.97,1687245351.546875
34.69,1687245351.5625
9.38,1687245351.578125
-10.89,1687245351.59375
-26.35,1687245351.609375
-37.44,1687245351.625
-44.26,1687245351.640625
-46.77,1687245351.65625
-45.19,1687245351.671875
-40.87,1687245351.6875
-35.16,1687245351.703125
-30.91,1687245351.71875
-31.18,1687245351.734375
-37.00,1687245351.75
-48.62,1687245351.765625
-64.38,1687245351.78125
-81.61,1687245351.796875
-97.57,1687245351.8125
-111.16,1687245351.828125
-117.99,1687245351.84375
-117.49,1687245351.859375
-113.04,1687245351.875
-108.66,1687245351.890625
-106.59,1687245351.90625
-106.09,1687245351.921875
-105.28,1687245351.9375
-102.44,1687245351.953125
-97.27,1687245351.96875
-88.90,1687245351.984375
-77.47,1687245352.0
-64.42,1687245352.015625
-47.64,1687245352.03125
-26.09,1687245352.046875
-1.14,1687245352.0625
22.87,1687245352.078125
40.62,1687245352.09375
47.29,1687245352.109375
42.31,1687245352.125
27.93,1687245352.140625
8.91,1687245352.15625
-7.12,1687245352.171875
-13.95,1687245352.1875
-6.71,1687245352.203125
15.62,1687245352.21875
50.84,1687245352.234375
93.73,1687245352.25
139.70,1687245352.265625
183.80,1687245352.28125
213.89,1687245352.296875
220.99,1687245352.3125
204.32,1687245352.328125
171.54,1687245352.34375
132.43,1687245352.359375
100.72,1687245352.375
76.44,1687245352.390625
59.25,1687245352.40625
50.04,1687245352.421875
50.70,1687245352.4375
61.51,1687245352.453125
82.43,1687245352.46875
110.19,1687245352.484375
137.83,1687245352.5
158.11,1687245352.515625
165.50,1687245352.53125
159.23,1687245352.546875
141.22,1687245352.5625
114.40,1687245352.578125
82.33,1687245352.59375
48.12,1687245352.609375
13.73,1687245352.625
-20.26,1687245352.640625
-52.51,1687245352.65625
-80.86,1687245352.671875
-102.23,1687245352.6875
-114.74,1687245352.703125
-118.98,1687245352.71875
-117.73,1687245352.734375
-115.83,1687245352.75
-114.61,1687245352.765625
-117.44,1687245352.78125
-126.54,1687245352.796875
-140.49,1687245352.8125
-154.22,1687245352.828125
-161.83,1687245352.84375
-159.55,1687245352.859375
-146.62,1687245352.875
-124.71,1687245352.890625
-97.06,1687245352.90625
-67.86,1687245352.921875
-42.41,1687245352.9375
-19.87,1687245352.953125
0.72,1687245352.96875
19.65,1687245352.984375
36.29,1687245353.0
49.37,1687245353.015625
57.63,1687245353.03125
60.35,1687245353.046875
57.44,1687245353.0625
50.28,1687245353.078125
41.33,1687245353.09375
32.28,1687245353.109375
23.80,1687245353.125
15.42,1687245353.140625
5.92,1687245353.15625
-5.53,1687245353.171875
-18.81,1687245353.1875
-33.05,1687245353.203125
-46.68,1687245353.21875
-57.92,1687245353.234375
-66.38,1687245353.25
-72.60,1687245353.265625
-77.63,1687245353.28125
-82.57,1687245353.296875
-88.11,1687245353.3125
-94.40,1687245353.328125
-101.24,1687245353.34375
-108.03,1687245353.359375
-113.84,1687245353.375
-118.24,1687245353.390625
-121.14,1687245353.40625
-122.77,1687245353.421875
-123.67,1687245353.4375
-124.30,1687245353.453125
-124.72,1687245353.46875
-124.41,1687245353.484375
-122.15,1687245353.5
-116.35,1687245353.515625
-105.99,1687245353.53125
-91.16,1687245353.546875
-73.21,1687245353.5625
-54.33,1687245353.578125
-36.60,1687245353.59375
-21.13,1687245353.609375
-7.81,1687245353.625
4.24,1687245353.640625
15.84,1687245353.65625
27.01,1687245353.671875
36.91,1687245353.6875
44.36,1687245353.703125
48.49,1687245353.71875
49.29,1687245353.734375
47.69,1687245353.75
45.20,1687245353.765625
43.30,1687245353.78125
42.92,1687245353.796875
44.25,1687245353.8125
46.80,1687245353.828125
49.80,1687245353.84375
52.59,1687245353.859375
54.90,1687245353.875
56.88,1687245353.890625
58.76,1687245353.90625
60.51,1687245353.921875
61.72,1687245353.9375
61.78,1687245353.953125
60.24,1687245353.96875
57.18,1687245353.984375
53.24,1687245354.0
49.33,1687245354.015625
46.13,1687245354.03125
43.87,1687245354.046875
42.19,1687245354.0625
40.43,1687245354.078125
38.22,1687245354.09375
35.42,1687245354.109375
32.07,1687245354.125
28.33,1687245354.140625
24.43,1687245354.15625
20.71,1687245354.171875
17.42,1687245354.1875
14.61,1687245354.203125
12.03,1687245354.21875
9.59,1687245354.234375
7.28,1687245354.25
5.19,1687245354.265625
3.39,1687245354.28125
1.97,1687245354.296875
0.93,1687245354.3125
0.03,1687245354.328125
-1.23,1687245354.34375
-3.38,1687245354.359375
-5.90,1687245354.375
-7.67,1687245354.390625
-7.34,1687245354.40625
-3.96,1687245354.421875
2.62,1687245354.4375
11.67,1687245354.453125
21.54,1687245354.46875
30.07,1687245354.484375
35.12,1687245354.5
37.02,1687245354.515625
36.58,1687245354.53125
34.01,1687245354.546875
28.14,1687245354.5625
17.21,1687245354.578125
0.07,1687245354.59375
-23.26,1687245354.609375
-51.82,1687245354.625
-84.20,1687245354.640625
-114.97,1687245354.65625
-139.29,1687245354.671875
-154.78,1687245354.6875
-162.04,1687245354.703125
-162.60,1687245354.71875
-156.92,1687245354.734375
-144.16,1687245354.75
-123.40,1687245354.765625
-95.36,1687245354.78125
-56.86,1687245354.796875
-7.84,1687245354.8125
46.75,1687245354.828125
97.92,1687245354.84375
137.99,1687245354.859375
165.31,1687245354.875
184.27,1687245354.890625
201.99,1687245354.90625
224.07,1687245354.921875
260.98,1687245354.9375
318.66,1687245354.953125
396.34,1687245354.96875
487.45,1687245354.984375
584.77,1687245355.0
684.25,1687245355.015625
783.93,1687245355.03125
880.90,1687245355.046875
924.41,1687245355.0625
877.15,1687245355.078125
733.86,1687245355.09375
528.88,1687245355.109375
310.58,1687245355.125
114.46,1687245355.140625
-43.31,1687245355.15625
-159.85,1687245355.171875
-235.08,1687245355.1875
-281.42,1687245355.203125
-299.37,1687245355.21875
-288.30,1687245355.234375
-251.77,1687245355.25
-202.26,1687245355.265625
-155.39,1687245355.28125
-121.69,1687245355.296875
-103.87,1687245355.3125
-99.09,1687245355.328125
-102.75,1687245355.34375
-106.81,1687245355.359375
-106.78,1687245355.375
-102.90,1687245355.390625
-99.50,1687245355.40625
-100.78,1687245355.421875
-107.75,1687245355.4375
-119.11,1687245355.453125
-133.65,1687245355.46875
-152.63,1687245355.484375
-170.21,1687245355.5
-183.08,1687245355.515625
-191.03,1687245355.53125
-197.14,1687245355.546875
-205.80,1687245355.5625
-220.27,1687245355.578125
-241.55,1687245355.59375
-267.70,1687245355.609375
-294.03,1687245355.625
-311.38,1687245355.640625
-311.29,1687245355.65625
-289.29,1687245355.671875
-247.30,1687245355.6875
-192.86,1687245355.703125
-136.18,1687245355.71875
-86.75,1687245355.734375
-50.82,1687245355.75
-30.25,1687245355.765625
-22.15,1687245355.78125
-21.57,1687245355.796875
-23.10,1687245355.8125
-22.33,1687245355.828125
-16.54,1687245355.84375
-4.84,1687245355.859375
11.57,1687245355.875
29.59,1687245355.890625
44.95,1687245355.90625
53.20,1687245355.921875
51.42,1687245355.9375
39.44,1687245355.953125
19.72,1687245355.96875
-3.91,1687245355.984375
-27.61,1687245356.0
-48.25,1687245356.015625
-63.63,1687245356.03125
-72.37,1687245356.046875
-75.12,1687245356.0625
-73.18,1687245356.078125
-67.88,1687245356.09375
-60.24,1687245356.109375
-51.44,1687245356.125
-42.55,1687245356.140625
-33.99,1687245356.15625
-25.37,1687245356.171875
-15.66,1687245356.1875
-6.05,1687245356.203125
2.00,1687245356.21875
7.30,1687245356.234375
9.29,1687245356.25
7.19,1687245356.265625
0.07,1687245356.28125
-12.29,1687245356.296875
-28.84,1687245356.3125
-47.33,1687245356.328125
-67.82,1687245356.34375
-90.18,1687245356.359375
-113.73,1687245356.375
-137.05,1687245356.390625
-159.67,1687245356.40625
-182.19,1687245356.421875
-205.67,1687245356.4375
-231.10,1687245356.453125
-242.24,1687245356.46875
-229.61,1687245356.484375
-194.23,1687245356.5
-146.50,1687245356.515625
-97.34,1687245356.53125
-54.00,1687245356.546875
-20.27,1687245356.5625
2.07,1687245356.578125
13.08,1687245356.59375
15.73,1687245356.609375
13.13,1687245356.625
9.99,1687245356.640625
8.86,1687245356.65625
13.34,1687245356.671875
23.42,1687245356.6875
36.19,1687245356.703125
48.72,1687245356.71875
59.76,1687245356.734375
70.26,1687245356.75
79.87,1687245356.765625
88.00,1687245356.78125
94.06,1687245356.796875
98.75,1687245356.8125
103.46,1687245356.828125
108.81,1687245356.84375
116.70,1687245356.859375
128.87,1687245356.875
145.83,1687245356.890625
164.98,1687245356.90625
182.80,1687245356.921875
196.61,1687245356.9375
206.03,1687245356.953125
211.94,1687245356.96875
215.68,1687245356.984375
218.46,1687245357.0
220.62,1687245357.015625
221.96,1687245357.03125
221.57,1687245357.046875
219.06,1687245357.0625
214.72,1687245357.078125
209.45,1687245357.09375
203.62,1687245357.109375
197.02,1687245357.125
189.18,1687245357.140625
179.49,1687245357.15625
168.00,1687245357.171875
155.42,1687245357.1875
143.09,1687245357.203125
132.48,1687245357.21875
124.39,1687245357.234375
118.21,1687245357.25
111.73,1687245357.265625
101.75,1687245357.28125
84.36,1687245357.296875
57.05,1687245357.3125
19.91,1687245357.328125
-24.15,1687245357.34375
-70.09,1687245357.359375
-112.26,1687245357.375
-145.99,1687245357.390625
-168.83,1687245357.40625
-181.03,1687245357.421875
-185.97,1687245357.4375
-187.22,1687245357.453125
-186.98,1687245357.46875
-185.96,1687245357.484375
-183.97,1687245357.5
-180.54,1687245357.515625
-175.23,1687245357.53125
-167.87,1687245357.546875
-158.93,1687245357.5625
-151.38,1687245357.578125
-148.05,1687245357.59375
-150.70,1687245357.609375
-159.88,1687245357.625
-174.99,1687245357.640625
-194.14,1687245357.65625
-214.37,1687245357.671875
-232.76,1687245357.6875
-247.99,1687245357.703125
-262.79,1687245357.71875
-279.09,1687245357.734375
-295.57,1687245357.75
-307.31,1687245357.765625
-307.81,1687245357.78125
-291.87,1687245357.796875
-257.87,1687245357.8125
-208.74,1687245357.828125
-138.63,1687245357.84375
-54.88,1687245357.859375
26.43,1687245357.875
90.57,1687245357.890625
133.48,1687245357.90625
160.56,1687245357.921875
179.11,1687245357.9375
192.93,1687245357.953125
202.07,1687245357.96875
205.09,1687245357.984375
199.91,1687245358.0
188.42,1687245358.015625
175.79,1687245358.03125
166.96,1687245358.046875
163.22,1687245358.0625
161.92,1687245358.078125
158.88,1687245358.09375
151.89,1687245358.109375
141.91,1687245358.125
130.56,1687245358.140625
120.48,1687245358.15625
113.58,1687245358.171875
109.62,1687245358.1875
106.29,1687245358.203125
101.68,1687245358.21875
93.73,1687245358.234375
82.16,1687245358.25
67.48,1687245358.265625
49.11,1687245358.28125
26.89,1687245358.296875
1.83,1687245358.3125
-23.74,1687245358.328125
-46.83,1687245358.34375
-64.63,1687245358.359375
-75.46,1687245358.375
-78.89,1687245358.390625
-75.92,1687245358.40625
-68.80,1687245358.421875
-59.49,1687245358.4375
-49.13,1687245358.453125
-38.73,1687245358.46875
-29.42,1687245358.484375
-22.62,1687245358.5
-19.59,1687245358.515625
-20.65,1687245358.53125
-25.13,1687245358.546875
-31.86,1687245358.5625
-39.54,1687245358.578125
-46.06,1687245358.59375
-50.23,1687245358.609375
-51.60,1687245358.625
-50.10,1687245358.640625
-45.75,1687245358.65625
-38.55,1687245358.671875
-28.94,1687245358.6875
-18.11,1687245358.703125
-7.84,1687245358.71875
0.27,1687245358.734375
5.41,1687245358.75
8.11,1687245358.765625
9.81,1687245358.78125
11.98,1687245358.796875
15.27,1687245358.8125
19.14,1687245358.828125
22.35,1687245358.84375
23.78,1687245358.859375
23.18,1687245358.875
21.19,1687245358.890625
19.08,1687245358.90625
18.06,1687245358.921875
18.70,1687245358.9375
20.86,1687245358.953125
23.89,1687245358.96875
27.11,1687245358.984375
30.11,1687245359.0
32.79,1687245359.015625
35.11,1687245359.03125
36.91,1687245359.046875
37.87,1687245359.0625
37.54,1687245359.078125
35.67,1687245359.09375
32.37,1687245359.109375
28.09,1687245359.125
23.51,1687245359.140625
19.18,1687245359.15625
15.29,1687245359.171875
11.67,1687245359.1875
8.00,1687245359.203125
4.07,1687245359.21875
-0.12,1687245359.234375
-4.33,1687245359.25
-8.29,1687245359.265625
-11.91,1687245359.28125
-15.22,1687245359.296875
-18.39,1687245359.3125
-21.51,1687245359.328125
-24.54,1687245359.34375
-27.38,1687245359.359375
-30.02,1687245359.375
-32.66,1687245359.390625
-35.66,1687245359.40625
-39.31,1687245359.421875
-43.56,1687245359.4375
-47.87,1687245359.453125
-51.33,1687245359.46875
-52.97,1687245359.484375
-52.10,1687245359.5
-48.62,1687245359.515625
-42.98,1687245359.53125
-36.01,1687245359.546875
-28.59,1687245359.5625
-21.45,1687245359.578125
-15.02,1687245359.59375
-9.49,1687245359.609375
-4.91,1687245359.625
-1.29,1687245359.640625
1.37,1687245359.65625
3.16,1687245359.671875
4.25,1687245359.6875
4.96,1687245359.703125
5.60,1687245359.71875
6.49,1687245359.734375
7.78,1687245359.75
9.50,1687245359.765625
11.52,1687245359.78125
13.71,1687245359.796875
16.01,1687245359.8125
18.51,1687245359.828125
21.49,1687245359.84375
25.32,1687245359.859375
30.36,1687245359.875
36.80,1687245359.890625
44.51,1687245359.90625
53.04,1687245359.921875
61.70,1687245359.9375
69.65,1687245359.953125
76.18,1687245359.96875
80.86,1687245359.984375
83.60,1687245360.0
84.55,1687245360.015625
83.93,1687245360.03125
81.91,1687245360.046875
78.51,1687245360.0625
73.68,1687245360.078125
67.39,1687245360.09375
59.75,1687245360.109375
50.96,1687245360.125
41.33,1687245360.140625
31.24,1687245360.15625
21.12,1687245360.171875
11.41,1687245360.1875
2.52,1687245360.203125
-5.41,1687245360.21875
-12.66,1687245360.234375
-20.04,1687245360.25
-28.74,1687245360.265625
-39.87,1687245360.28125
-53.92,1687245360.296875
-70.35,1687245360.3125
-87.57,1687245360.328125
-103.52,1687245360.34375
-116.37,1687245360.359375
-125.20,1687245360.375
-130.12,1687245360.390625
-131.97,1687245360.40625
-131.59,1687245360.421875
-129.38,1687245360.4375
-125.24,1687245360.453125
-119.03,1687245360.46875
-111.15,1687245360.484375
-102.74,1687245360.5
-95.38,1687245360.515625
-90.35,1687245360.53125
-87.95,1687245360.546875
-87.19,1687245360.5625
-86.21,1687245360.578125
-83.21,1687245360.59375
-77.32,1687245360.609375
-69.08,1687245360.625
-60.17,1687245360.640625
-52.57,1687245360.65625
-47.79,1687245360.671875
-46.22,1687245360.6875
-47.17,1687245360.703125
-49.18,1687245360.71875
-50.40,1687245360.734375
-48.84,1687245360.75
-42.52,1687245360.765625
-29.61,1687245360.78125
-8.87,1687245360.796875
19.78,1687245360.8125
54.84,1687245360.828125
93.31,1687245360.84375
131.40,1687245360.859375
165.53,1687245360.875
193.31,1687245360.890625
213.89,1687245360.90625
227.63,1687245360.921875
235.46,1687245360.9375
238.26,1687245360.953125
236.80,1687245360.96875
231.91,1687245360.984375
224.75,1687245361.0
216.70,1687245361.015625
208.87,1687245361.03125
201.48,1687245361.046875
193.47,1687245361.0625
182.93,1687245361.078125
167.86,1687245361.09375
147.29,1687245361.109375
121.77,1687245361.125
93.09,1687245361.140625
63.55,1687245361.15625
35.02,1687245361.171875
8.40,1687245361.1875
-16.25,1687245361.203125
-39.28,1687245361.21875
-60.88,1687245361.234375
-80.81,1687245361.25
-98.40,1687245361.265625
-112.72,1687245361.28125
-122.76,1687245361.296875
-127.73,1687245361.3125
-127.35,1687245361.328125
-122.04,1687245361.34375
-113.00,1687245361.359375
-102.01,1687245361.375
-90.91,1687245361.390625
-81.05,1687245361.40625
-72.92,1687245361.421875
-66.24,1687245361.4375
-60.39,1687245361.453125
-54.81,1687245361.46875
-49.28,1687245361.484375
-43.81,1687245361.5
-38.38,1687245361.515625
-32.73,1687245361.53125
-26.45,1687245361.546875
-19.25,1687245361.5625
-11.25,1687245361.578125
-3.05,1687245361.59375
4.55,1687245361.609375
10.97,1687245361.625
16.11,1687245361.640625
20.40,1687245361.65625
24.50,1687245361.671875
28.98,1687245361.6875
33.97,1687245361.703125
39.16,1687245361.71875
43.93,1687245361.734375
47.64,1687245361.75
49.93,1687245361.765625
50.79,1687245361.78125
50.62,1687245361.796875
50.04,1687245361.8125
49.78,1687245361.828125
50.42,1687245361.84375
52.21,1687245361.859375
54.89,1687245361.875
57.71,1687245361.890625
59.54,1687245361.90625
59.28,1687245361.921875
56.19,1687245361.9375
50.14,1687245361.953125
41.67,1687245361.96875
31.77,1687245361.984375
21.55,1687245362.0
11.90,1687245362.015625
3.28,1687245362.03125
-4.30,1687245362.046875
-11.18,1687245362.0625
-17.79,1687245362.078125
-24.51,1687245362.09375
-31.54,1687245362.109375
-38.82,1687245362.125
-46.05,1687245362.140625
-52.69,1687245362.15625
-58.13,1687245362.171875
-61.79,1687245362.1875
-63.28,1687245362.203125
-62.50,1687245362.21875
-59.59,1687245362.234375
-54.88,1687245362.25
-48.81,1687245362.265625
-41.90,1687245362.28125
-34.73,1687245362.296875
-27.88,1687245362.3125
-21.93,1687245362.328125
-17.21,1687245362.34375
-13.83,1687245362.359375
-11.69,1687245362.375
-10.50,1687245362.390625
-9.96,1687245362.40625
-9.84,1687245362.421875
-9.90,1687245362.4375
-9.91,1687245362.453125
-9.63,1687245362.46875
-8.83,1687245362.484375
-7.45,1687245362.5
-5.62,1687245362.515625
-3.69,1687245362.53125
-2.02,1687245362.546875
-0.84,1687245362.5625
-0.12,1687245362.578125
0.40,1687245362.59375
1.01,1687245362.609375
1.89,1687245362.625
2.97,1687245362.640625
3.95,1687245362.65625
4.51,1687245362.671875
4.46,1687245362.6875
3.84,1687245362.703125
2.84,1687245362.71875
1.68,1687245362.734375
0.48,1687245362.75
-0.81,1687245362.765625
-2.30,1687245362.78125
-4.06,1687245362.796875
-6.05,1687245362.8125
-8.10,1687245362.828125
-10.01,1687245362.84375
-11.64,1687245362.859375
-12.92,1687245362.875
-13.89,1687245362.890625
-14.61,1687245362.90625
-15.17,1687245362.921875
-15.70,1687245362.9375
-16.35,1687245362.953125
-17.36,1687245362.96875
-19.00,1687245362.984375
-21.46,1687245363.0
-24.78,1687245363.015625
-28.72,1687245363.03125
-32.77,1687245363.046875
-36.19,1687245363.0625
-38.24,1687245363.078125
-38.34,1687245363.09375
-36.24,1687245363.109375
-32.07,1687245363.125
-26.32,1687245363.140625
-19.68,1687245363.15625
-12.84,1687245363.171875
-6.36,1687245363.1875
-0.59,1687245363.203125
4.27,1687245363.21875
8.20,1687245363.234375
11.19,1687245363.25
13.27,1687245363.265625
14.51,1687245363.28125
14.99,1687245363.296875
14.87,1687245363.3125
14.37,1687245363.328125
13.73,1687245363.34375
13.16,1687245363.359375
12.82,1687245363.375
12.73,1687245363.390625
12.86,1687245363.40625
13.18,1687245363.421875
13.66,1687245363.4375
14.31,1687245363.453125
15.13,1687245363.46875
16.06,1687245363.484375
17.01,1687245363.5
17.77,1687245363.515625
18.18,1687245363.53125
18.13,1687245363.546875
17.53,1687245363.5625
16.41,1687245363.578125
14.80,1687245363.59375
12.84,1687245363.609375
10.64,1687245363.625
8.40,1687245363.640625
6.25,1687245363.65625
4.24,1687245363.671875
2.33,1687245363.6875
0.32,1687245363.703125
-1.99,1687245363.71875
-4.74,1687245363.734375
-7.87,1687245363.75
-11.15,1687245363.765625
-14.26,1687245363.78125
-16.94,1687245363.796875
-19.12,1687245363.8125
-20.91,1687245363.828125
-22.64,1687245363.84375
-24.61,1687245363.859375
-27.11,1687245363.875
-30.31,1687245363.890625
-34.18,1687245363.90625
-38.48,1687245363.921875
-42.65,1687245363.9375
-45.92,1687245363.953125
-47.42,1687245363.96875
-46.47,1687245363.984375
-42.78,1687245364.0
-36.67,1687245364.015625
-28.88,1687245364.03125
-20.38,1687245364.046875
-12.05,1687245364.0625
-4.50,1687245364.078125
2.02,1687245364.09375
7.43,1687245364.109375
11.79,1687245364.125
15.18,1687245364.140625
17.71,1687245364.15625
19.51,1687245364.171875
20.80,1687245364.1875
21.75,1687245364.203125
22.48,1687245364.21875
23.01,1687245364.234375
23.31,1687245364.25
23.39,1687245364.265625
23.34,1687245364.28125
23.35,1687245364.296875
23.64,1687245364.3125
24.32,1687245364.328125
25.35,1687245364.34375
26.53,1687245364.359375
27.55,1687245364.375
28.15,1687245364.390625
28.14,1687245364.40625
27.50,1687245364.421875
26.30,1687245364.4375
24.66,1687245364.453125
22.64,1687245364.46875
20.30,1687245364.484375
17.71,1687245364.5
14.93,1687245364.515625
12.12,1687245364.53125
9.38,1687245364.546875
6.78,1687245364.5625
4.27,1687245364.578125
1.74,1687245364.59375
-0.94,1687245364.609375
-3.83,1687245364.625
-6.92,1687245364.640625
-10.11,1687245364.65625
-13.27,1687245364.671875
-16.27,1687245364.6875
-19.00,1687245364.703125
-21.36,1687245364.71875
-23.38,1687245364.734375
-25.18,1687245364.75
-27.09,1687245364.765625
-29.54,1687245364.78125
-32.88,1687245364.796875
-37.19,1687245364.8125
-42.15,1687245364.828125
-46.98,1687245364.84375
-50.65,1687245364.859375
-52.13,1687245364.875
-50.71,1687245364.890625
-46.24,1687245364.90625
-39.12,1687245364.921875
-30.22,1687245364.9375
-20.60,1687245364.953125
-11.22,1687245364.96875
-2.75,1687245364.984375
4.48,1687245365.0
10.42,1687245365.015625
15.16,1687245365.03125
18.80,1687245365.046875
21.46,1687245365.0625
23.27,1687245365.078125
24.41,1687245365.09375
25.10,1687245365.109375
25.53,1687245365.125
25.77,1687245365.140625
25.82,1687245365.15625
25.65,1687245365.171875
25.34,1687245365.1875
25.08,1687245365.203125
25.07,1687245365.21875
25.44,1687245365.234375
26.12,1687245365.25
26.88,1687245365.265625
27.46,1687245365.28125
27.69,1687245365.296875
27.51,1687245365.3125
26.98,1687245365.328125
26.10,1687245365.34375
24.86,1687245365.359375
23.19,1687245365.375
21.15,1687245365.390625
18.92,1687245365.40625
16.76,1687245365.421875
14.92,1687245365.4375
13.47,1687245365.453125
12.28,1687245365.46875
11.12,1687245365.484375
9.70,1687245365.5
7.86,1687245365.515625
5.59,1687245365.53125
2.93,1687245365.546875
0.01,1687245365.5625
-3.08,1687245365.578125
-6.23,1687245365.59375
-9.38,1687245365.609375
-12.46,1687245365.625
-15.51,1687245365.640625
-18.71,1687245365.65625
-22.37,1687245365.671875
-26.78,1687245365.6875
-32.06,1687245365.703125
-38.02,1687245365.71875
-44.09,1687245365.734375
-49.39,1687245365.75
-52.99,1687245365.765625
-54.13,1687245365.78125
-52.41,1687245365.796875
-47.93,1687245365.8125
-41.22,1687245365.828125
-33.09,1687245365.84375
-24.43,1687245365.859375
-15.99,1687245365.875
-8.28,1687245365.890625
-1.51,1687245365.90625
4.30,1687245365.921875
9.28,1687245365.9375
13.49,1687245365.953125
16.93,1687245365.96875
19.57,1687245365.984375
21.33,1687245366.0
22.27,1687245366.015625
22.57,1687245366.03125
22.49,1687245366.046875
22.31,1687245366.0625
22.23,1687245366.078125
22.37,1687245366.09375
22.78,1687245366.109375
23.45,1687245366.125
24.37,1687245366.140625
25.47,1687245366.15625
26.62,1687245366.171875
27.59,1687245366.1875
28.11,1687245366.203125
27.98,1687245366.21875
27.15,1687245366.234375
25.68,1687245366.25
23.75,1687245366.265625
21.53,1687245366.28125
19.12,1687245366.296875
16.59,1687245366.3125
13.99,1687245366.328125
11.41,1687245366.34375
8.93,1687245366.359375
6.55,1687245366.375
4.13,1687245366.390625
1.44,1687245366.40625
-1.68,1687245366.421875
-5.21,1687245366.4375
-8.90,1687245366.453125
-12.39,1687245366.46875
-15.41,1687245366.484375
-17.93,1687245366.5
-20.20,1687245366.515625
-22.62,1687245366.53125
-25.59,1687245366.546875
-29.33,1687245366.5625
-33.83,1687245366.578125
-38.85,1687245366.59375
-43.95,1687245366.609375
-48.47,1687245366.625
-51.68,1687245366.640625
-52.81,1687245366.65625
-51.22,1687245366.671875
-46.71,1687245366.6875
-39.52,1687245366.703125
-30.40,1687245366.71875
-20.35,1687245366.734375
-10.37,1687245366.75
-1.23,1687245366.765625
6.66,1687245366.78125
13.25,1687245366.796875
18.64,1687245366.8125
23.01,1687245366.828125
26.49,1687245366.84375
29.16,1687245366.859375
31.08,1687245366.875
32.36,1687245366.890625
33.15,1687245366.90625
33.61,1687245366.921875
33.91,1687245366.9375
34.17,1687245366.953125
34.46,1687245366.96875
34.91,1687245366.984375
35.63,1687245367.0
36.71,1687245367.015625
38.17,1687245367.03125
39.87,1687245367.046875
41.54,1687245367.0625
42.82,1687245367.078125
43.33,1687245367.09375
42.72,1687245367.109375
40.81,1687245367.125
37.54,1687245367.140625
32.97,1687245367.15625
27.26,1687245367.171875
20.67,1687245367.1875
13.56,1687245367.203125
6.29,1687245367.21875
-0.83,1687245367.234375
-7.63,1687245367.25
-14.08,1687245367.265625
-20.29,1687245367.28125
-26.34,1687245367.296875
-32.27,1687245367.3125
-38.00,1687245367.328125
-43.35,1687245367.34375
-48.15,1687245367.359375
-52.30,1687245367.375
-55.85,1687245367.390625
-58.97,1687245367.40625
-61.92,1687245367.421875
-65.00,1687245367.4375
-68.46,1687245367.453125
-72.40,1687245367.46875
-76.70,1687245367.484375
-80.93,1687245367.5
-84.34,1687245367.515625
-86.05,1687245367.53125
-85.21,1687245367.546875
-81.33,1687245367.5625
-74.38,1687245367.578125
-64.82,1687245367.59375
-53.36,1687245367.609375
-40.75,1687245367.625
-27.67,1687245367.640625
-14.63,1687245367.65625
-2.07,1687245367.671875
9.71,1687245367.6875
20.54,1687245367.703125
30.40,1687245367.71875
39.36,1687245367.734375
47.41,1687245367.75
54.52,1687245367.765625
60.46,1687245367.78125
65.02,1687245367.796875
68.15,1687245367.8125
70.11,1687245367.828125
71.45,1687245367.84375
72.79,1687245367.859375
74.48,1687245367.875
76.55,1687245367.890625
78.78,1687245367.90625
80.77,1687245367.921875
82.12,1687245367.9375
82.61,1687245367.953125
82.16,1687245367.96875
80.92,1687245367.984375
79.13,1687245368.0
77.03,1687245368.015625
74.83,1687245368.03125
72.88,1687245368.046875
71.40,1687245368.0625
70.18,1687245368.078125
68.80,1687245368.09375
66.80,1687245368.109375
64.17,1687245368.125
61.29,1687245368.140625
58.70,1687245368.15625
56.85,1687245368.171875
56.29,1687245368.1875
56.90,1687245368.203125
57.63,1687245368.21875
57.07,1687245368.234375
54.16,1687245368.25
48.91,1687245368.265625
42.31,1687245368.28125
35.56,1687245368.296875
29.72,1687245368.3125
26.08,1687245368.328125
24.71,1687245368.34375
24.40,1687245368.359375
23.55,1687245368.375
21.19,1687245368.390625
17.85,1687245368.40625
15.25,1687245368.421875
14.82,1687245368.4375
17.06,1687245368.453125
22.42,1687245368.46875
29.39,1687245368.484375
34.94,1687245368.5
35.86,1687245368.515625
29.47,1687245368.53125
14.30,1687245368.546875
-10.47,1687245368.5625
-46.26,1687245368.578125
-94.83,1687245368.59375
-156.14,1687245368.609375
-220.61,1687245368.625
-272.95,1687245368.640625
-298.93,1687245368.65625
-294.01,1687245368.671875
-262.86,1687245368.6875
-213.47,1687245368.703125
-153.95,1687245368.71875
-99.38,1687245368.734375
-49.93,1687245368.75
-6.28,1687245368.765625
29.00,1687245368.78125
52.79,1687245368.796875
62.86,1687245368.8125
59.00,1687245368.828125
45.00,1687245368.84375
24.46,1687245368.859375
1.40,1687245368.875
-18.84,1687245368.890625
-33.21,1687245368.90625
-41.13,1687245368.921875
-44.20,1687245368.9375
-45.37,1687245368.953125
-47.24,1687245368.96875
-50.88,1687245368.984375
-56.20,1687245369.0
-61.60,1687245369.015625
-63.91,1687245369.03125
-61.75,1687245369.046875
-55.92,1687245369.0625
-49.10,1687245369.078125
-44.74,1687245369.09375
-45.39,1687245369.109375
-51.39,1687245369.125
-61.18,1687245369.140625
-71.82,1687245369.15625
-79.69,1687245369.171875
-83.24,1687245369.1875
-82.83,1687245369.203125
-80.10,1687245369.21875
-76.64,1687245369.234375
-72.97,1687245369.25
-68.25,1687245369.265625
-61.01,1687245369.28125
-50.01,1687245369.296875
-34.61,1687245369.3125
-15.81,1687245369.328125
4.34,1687245369.34375
23.51,1687245369.359375
39.82,1687245369.375
52.42,1687245369.390625
61.68,1687245369.40625
68.78,1687245369.421875
75.20,1687245369.4375
82.21,1687245369.453125
90.09,1687245369.46875
98.34,1687245369.484375
106.04,1687245369.5
112.28,1687245369.515625
116.32,1687245369.53125
117.60,1687245369.546875
115.57,1687245369.5625
109.91,1687245369.578125
100.98,1687245369.59375
90.10,1687245369.609375
79.37,1687245369.625
71.02,1687245369.640625
66.40,1687245369.65625
65.51,1687245369.671875
67.15,1687245369.6875
69.77,1687245369.703125
72.28,1687245369.71875
74.20,1687245369.734375
75.18,1687245369.75
74.28,1687245369.765625
69.99,1687245369.78125
61.10,1687245369.796875
47.84,1687245369.8125
32.42,1687245369.828125
18.21,1687245369.84375
8.22,1687245369.859375
3.64,1687245369.875
3.53,1687245369.890625
5.31,1687245369.90625
5.97,1687245369.921875
3.32,1687245369.9375
-3.47,1687245369.953125
-13.91,1687245369.96875
-26.62,1687245369.984375
-39.88,1687245370.0
-52.00,1687245370.015625
-61.48,1687245370.03125
-67.26,1687245370.046875
-68.89,1687245370.0625
-66.73,1687245370.078125
-61.80,1687245370.09375
-55.34,1687245370.109375
-48.30,1687245370.125
-41.01,1687245370.140625
-33.24,1687245370.15625
-24.39,1687245370.171875
-14.04,1687245370.1875
-2.28,1687245370.203125
9.95,1687245370.21875
21.04,1687245370.234375
29.03,1687245370.25
32.40,1687245370.265625
30.66,1687245370.28125
24.56,1687245370.296875
15.88,1687245370.3125
6.69,1687245370.328125
-1.40,1687245370.34375
-7.76,1687245370.359375
-12.78,1687245370.375
-17.20,1687245370.390625
-21.40,1687245370.40625
-24.76,1687245370.421875
-26.03,1687245370.4375
-24.08,1687245370.453125
-18.88,1687245370.46875
-12.04,1687245370.484375
-6.24,1687245370.5
-3.95,1687245370.515625
-6.05,1687245370.53125
-11.34,1687245370.546875
-17.29,1687245370.5625
-21.51,1687245370.578125
-23.03,1687245370.59375
-22.58,1687245370.609375
-21.91,1687245370.625
-22.72,1687245370.640625
-25.72,1687245370.65625
-30.49,1687245370.671875
-35.92,1687245370.6875
-41.02,1687245370.703125
-45.42,1687245370.71875
-49.25,1687245370.734375
-52.56,1687245370.75
-55.22,1687245370.765625
-57.12,1687245370.78125
-58.60,1687245370.796875
-60.50,1687245370.8125
-63.86,1687245370.828125
-69.34,1687245370.84375
-76.71,1687245370.859375
-84.68,1687245370.875
-90.81,1687245370.890625
-92.96,1687245370.90625
-90.49,1687245370.921875
-84.55,1687245370.9375
-77.18,1687245370.953125
-70.03,1687245370.96875
-63.78,1687245370.984375
-58.43,1687245371.0
-53.84,1687245371.015625
-49.07,1687245371.03125
-43.73,1687245371.046875
-38.39,1687245371.0625
-34.27,1687245371.078125
-32.19,1687245371.09375
-31.73,1687245371.109375
-31.83,1687245371.125
-31.67,1687245371.140625
-31.31,1687245371.15625
-29.79,1687245371.171875
-26.52,1687245371.1875
-21.96,1687245371.203125
-17.67,1687245371.21875
-15.01,1687245371.234375
-13.72,1687245371.25
-12.39,1687245371.265625
-9.18,1687245371.28125
-2.39,1687245371.296875
11.86,1687245371.3125
37.06,1687245371.328125
74.17,1687245371.34375
120.80,1687245371.359375
172.67,1687245371.375
226.29,1687245371.390625
279.63,1687245371.40625
332.07,1687245371.421875
367.61,1687245371.4375
372.98,1687245371.453125
346.50,1687245371.46875
300.41,1687245371.484375
250.08,1687245371.5
204.01,1687245371.515625
163.70,1687245371.53125
126.86,1687245371.546875
90.71,1687245371.5625
54.07,1687245371.578125
20.32,1687245371.59375
-5.62,1687245371.609375
-20.64,1687245371.625
-24.09,1687245371.640625
-20.97,1687245371.65625
-15.66,1687245371.671875
-11.13,1687245371.6875
-8.77,1687245371.703125
-8.70,1687245371.71875
-8.86,1687245371.734375
-7.46,1687245371.75
-4.46,1687245371.765625
-1.67,1687245371.78125
-1.02,1687245371.796875
-2.30,1687245371.8125
-3.79,1687245371.828125
-4.27,1687245371.84375
-2.57,1687245371.859375
2.29,1687245371.875
10.10,1687245371.890625
19.02,1687245371.90625
26.06,1687245371.921875
28.28,1687245371.9375
24.52,1687245371.953125
15.46,1687245371.96875
3.37,1687245371.984375
-8.52,1687245372.0
-16.59,1687245372.015625
-18.39,1687245372.03125
-13.69,1687245372.046875
-4.51,1687245372.0625
5.85,1687245372.078125
14.57,1687245372.09375
19.90,1687245372.109375
21.10,1687245372.125
18.04,1687245372.140625
10.81,1687245372.15625
-0.47,1687245372.171875
-15.48,1687245372.1875
-33.33,1687245372.203125
-52.59,1687245372.21875
-71.49,1687245372.234375
-88.81,1687245372.25
-104.34,1687245372.265625
-118.66,1687245372.28125
-132.75,1687245372.296875
-147.23,1687245372.3125
-161.96,1687245372.328125
-176.23,1687245372.34375
-189.22,1687245372.359375
-200.44,1687245372.375
-209.78,1687245372.390625
-217.23,1687245372.40625
-222.34,1687245372.421875
-224.11,1687245372.4375
-221.16,1687245372.453125
-212.20,1687245372.46875
-196.66,1687245372.484375
-175.08,1687245372.5
-149.24,1687245372.515625
-121.78,1687245372.53125
-95.32,1687245372.546875
-71.52,1687245372.5625
-50.50,1687245372.578125
-30.96,1687245372.59375
-10.86,1687245372.609375
11.30,1687245372.625
35.26,1687245372.640625
58.51,1687245372.65625
77.06,1687245372.671875
86.87,1687245372.6875
85.69,1687245372.703125
73.55,1687245372.71875
52.51,1687245372.734375
25.86,1687245372.75
-2.60,1687245372.765625
-28.84,1687245372.78125
-48.94,1687245372.796875
-59.58,1687245372.8125
-59.19,1687245372.828125
-48.55,1687245372.84375
-31.58,1687245372.859375
-13.81,1687245372.875
0.75,1687245372.890625
12.35,1687245372.90625
25.47,1687245372.921875
45.83,1687245372.9375
76.05,1687245372.953125
112.83,1687245372.96875
148.63,1687245372.984375
174.09,1687245373.0
182.70,1687245373.015625
174.18,1687245373.03125
154.47,1687245373.046875
131.97,1687245373.0625
112.90,1687245373.078125
98.77,1687245373.09375
86.97,1687245373.109375
75.45,1687245373.125
62.94,1687245373.140625
49.64,1687245373.15625
37.58,1687245373.171875
30.16,1687245373.1875
30.69,1687245373.203125
41.02,1687245373.21875
60.90,1687245373.234375
88.26,1687245373.25
121.98,1687245373.265625
159.22,1687245373.28125
195.50,1687245373.296875
226.26,1687245373.3125
248.87,1687245373.328125
262.32,1687245373.34375
266.29,1687245373.359375
260.19,1687245373.375
229.65,1687245373.390625
172.11,1687245373.40625
98.23,1687245373.421875
23.89,1687245373.4375
-40.85,1687245373.453125
-93.73,1687245373.46875
-136.77,1687245373.484375
-171.85,1687245373.5
-198.70,1687245373.515625
-215.07,1687245373.53125
-216.50,1687245373.546875
-202.38,1687245373.5625
-178.01,1687245373.578125
-152.59,1687245373.59375
-134.10,1687245373.609375
-126.20,1687245373.625
-126.56,1687245373.640625
-128.67,1687245373.65625
-125.79,1687245373.671875
-113.08,1687245373.6875
-91.88,1687245373.703125
-68.99,1687245373.71875
-53.54,1687245373.734375
-49.11,1687245373.75
-55.40,1687245373.765625
-68.28,1687245373.78125
-81.73,1687245373.796875
-90.12,1687245373.8125
-89.09,1687245373.828125
-77.93,1687245373.84375
-59.35,1687245373.859375
-37.78,1687245373.875
-17.13,1687245373.890625
-0.80,1687245373.90625
8.73,1687245373.921875
9.65,1687245373.9375
0.76,1687245373.953125
-17.77,1687245373.96875
-44.44,1687245373.984375
-75.62,1687245374.0
-105.29,1687245374.015625
-123.61,1687245374.03125
-123.30,1687245374.046875
-104.20,1687245374.0625
-74.53,1687245374.078125
-47.32,1687245374.09375
-34.02,1687245374.109375
-38.75,1687245374.125
-57.47,1687245374.140625
-81.25,1687245374.15625
-99.47,1687245374.171875
-104.69,1687245374.1875
-95.09,1687245374.203125
-74.70,1687245374.21875
-51.19,1687245374.234375
-31.99,1687245374.25
-24.22,1687245374.265625
-30.67,1687245374.28125
-48.89,1687245374.296875
-72.61,1687245374.3125
-95.29,1687245374.328125
-112.52,1687245374.34375
-123.01,1687245374.359375
-127.68,1687245374.375
-128.19,1687245374.390625
-125.71,1687245374.40625
-120.70,1687245374.421875
-113.82,1687245374.4375
-106.64,1687245374.453125
-101.67,1687245374.46875
-100.85,1687245374.484375
-104.14,1687245374.5
-109.18,1687245374.515625
-112.37,1687245374.53125
-110.82,1687245374.546875
-103.24,1687245374.5625
-90.31,1687245374.578125
-73.91,1687245374.59375
-56.24,1687245374.609375
-38.99,1687245374.625
-22.85,1687245374.640625
-7.50,1687245374.65625
8.18,1687245374.671875
25.64,1687245374.6875
46.43,1687245374.703125
71.65,1687245374.71875
101.51,1687245374.734375
134.94,1687245374.75
169.51,1687245374.765625
201.76,1687245374.78125
228.14,1687245374.796875
246.08,1687245374.8125
254.76,1687245374.828125
255.37,1687245374.84375
250.36,1687245374.859375
242.35,1687245374.875
233.15,1687245374.890625
223.48,1687245374.90625
213.35,1687245374.921875
202.91,1687245374.9375
192.89,1687245374.953125
184.39,1687245374.96875
178.27,1687245374.984375
174.41,1687245375.0
171.52,1687245375.015625
167.59,1687245375.03125
160.73,1687245375.046875
149.95,1687245375.0625
135.53,1687245375.078125
118.96,1687245375.09375
102.38,1687245375.109375
87.80,1687245375.125
76.42,1687245375.140625
68.24,1687245375.15625
62.30,1687245375.171875
57.19,1687245375.1875
51.80,1687245375.203125
45.82,1687245375.21875
39.73,1687245375.234375
34.37,1687245375.25
30.31,1687245375.265625
27.37,1687245375.28125
24.44,1687245375.296875
19.86,1687245375.3125
11.99,1687245375.328125
0.01,1687245375.34375
-15.71,1687245375.359375
-33.57,1687245375.375
-51.40,1687245375.390625
-67.01,1687245375.40625
-78.83,1687245375.421875
-86.06,1687245375.4375
-88.56,1687245375.453125
-86.68,1687245375.46875
-81.23,1687245375.484375
-73.66,1687245375.5
-66.01,1687245375.515625
-60.51,1687245375.53125
-58.68,1687245375.546875
-60.58,1687245375.5625
-64.52,1687245375.578125
-67.75,1687245375.59375
-67.66,1687245375.609375
-62.92,1687245375.625
-53.97,1687245375.640625
-42.50,1687245375.65625
-30.52,1687245375.671875
-19.39,1687245375.6875
-9.65,1687245375.703125
-1.22,1687245375.71875
6.07,1687245375.734375
12.28,1687245375.75
17.34,1687245375.765625
21.27,1687245375.78125
24.33,1687245375.796875
26.97,1687245375.8125
29.63,1687245375.828125
32.52,1687245375.84375
35.51,1687245375.859375
38.21,1687245375.875
40.18,1687245375.890625
41.15,1687245375.90625
41.29,1687245375.921875
41.28,1687245375.9375
42.08,1687245375.953125
44.65,1687245375.96875
49.38,1687245375.984375
55.86,1687245376.0
62.78,1687245376.015625
68.40,1687245376.03125
71.13,1687245376.046875
70.16,1687245376.0625
65.78,1687245376.078125
59.08,1687245376.09375
51.49,1687245376.109375
44.23,1687245376.125
37.86,1687245376.140625
32.36,1687245376.15625
27.26,1687245376.171875
21.89,1687245376.1875
15.62,1687245376.203125
7.94,1687245376.21875
-1.46,1687245376.234375
-12.53,1687245376.25
-24.85,1687245376.265625
-37.49,1687245376.28125
-49.22,1687245376.296875
-58.69,1687245376.3125
-64.77,1687245376.328125
-66.73,1687245376.34375
-64.40,1687245376.359375
-58.15,1687245376.375
-48.86,1687245376.390625
-37.68,1687245376.40625
-25.91,1687245376.421875
-14.66,1687245376.4375
-4.66,1687245376.453125
3.79,1687245376.46875
10.85,1687245376.484375
16.92,1687245376.5
22.41,1687245376.515625
27.46,1687245376.53125
31.81,1687245376.546875
34.87,1687245376.5625
35.96,1687245376.578125
34.58,1687245376.59375
30.72,1687245376.609375
24.79,1687245376.625
17.51,1687245376.640625
9.69,1687245376.65625
2.10,1687245376.671875
-4.44,1687245376.6875
-9.09,1687245376.703125
-11.02,1687245376.71875
-9.67,1687245376.734375
-5.00,1687245376.75
2.30,1687245376.765625
10.93,1687245376.78125
19.33,1687245376.796875
26.18,1687245376.8125
30.81,1687245376.828125
33.32,1687245376.84375
34.30,1687245376.859375
34.52,1687245376.875
34.52,1687245376.890625
34.49,1687245376.90625
34.18,1687245376.921875
33.12,1687245376.9375
30.76,1687245376.953125
26.81,1687245376.96875
21.26,1687245376.984375
14.50,1687245377.0
7.12,1687245377.015625
-0.30,1687245377.03125
-7.32,1687245377.046875
-13.71,1687245377.0625
-19.31,1687245377.078125
-23.82,1687245377.09375
-26.80,1687245377.109375
-27.52,1687245377.125
-25.26,1687245377.140625
-19.49,1687245377.15625
-10.18,1687245377.171875
2.14,1687245377.1875
16.33,1687245377.203125
30.84,1687245377.21875
43.97,1687245377.234375
54.11,1687245377.25
60.10,1687245377.265625
61.37,1687245377.28125
58.17,1687245377.296875
51.50,1687245377.3125
42.92,1687245377.328125
34.23,1687245377.34375
26.86,1687245377.359375
21.62,1687245377.375
18.29,1687245377.390625
15.82,1687245377.40625
12.65,1687245377.421875
7.35,1687245377.4375
-0.70,1687245377.453125
-10.91,1687245377.46875
-21.63,1687245377.484375
-30.64,1687245377.5
-35.99,1687245377.515625
-36.84,1687245377.53125
-33.81,1687245377.546875
-28.95,1687245377.5625
-25.00,1687245377.578125
-24.42,1687245377.59375
-28.54,1687245377.609375
-37.20,1687245377.625
-48.97,1687245377.640625
-61.84,1687245377.65625
-74.05,1687245377.671875
-84.49,1687245377.6875
-92.73,1687245377.703125
-98.76,1687245377.71875
-102.61,1687245377.734375
-104.27,1687245377.75
-103.83,1687245377.765625
-101.61,1687245377.78125
-98.21,1687245377.796875
-94.38,1687245377.8125
-90.63,1687245377.828125
-87.01,1687245377.84375
-83.04,1687245377.859375
-77.94,1687245377.875
-70.89,1687245377.890625
-61.32,1687245377.90625
-49.11,1687245377.921875
-34.75,1687245377.9375
-19.32,1687245377.953125
-4.30,1687245377.96875
8.80,1687245377.984375
18.93,1687245378.0
25.87,1687245378.015625
30.18,1687245378.03125
32.88,1687245378.046875
34.95,1687245378.0625
36.91,1687245378.078125
38.88,1687245378.09375
40.80,1687245378.109375
42.81,1687245378.125
45.38,1687245378.140625
49.18,1687245378.15625
54.72,1687245378.171875
62.05,1687245378.1875
70.63,1687245378.203125
79.44,1687245378.21875
87.10,1687245378.234375
92.09,1687245378.25
92.94,1687245378.265625
88.55,1687245378.28125
78.64,1687245378.296875
64.10,1687245378.3125
47.08,1687245378.328125
30.52,1687245378.34375
17.14,1687245378.359375
8.43,1687245378.375
3.97,1687245378.390625
1.70,1687245378.40625
-1.05,1687245378.421875
-6.31,1687245378.4375
-14.67,1687245378.453125
-25.21,1687245378.46875
-36.21,1687245378.484375
-46.00,1687245378.5
-53.54,1687245378.515625
-58.48,1687245378.53125
-60.97,1687245378.546875
-61.35,1687245378.5625
-60.08,1687245378.578125
-57.90,1687245378.59375
-55.78,1687245378.609375
-54.70,1687245378.625
-55.20,1687245378.640625
-57.05,1687245378.65625
-59.27,1687245378.671875
-60.63,1687245378.6875
-60.21,1687245378.703125
-57.85,1687245378.71875
-54.17,1687245378.734375
-50.27,1687245378.75
-47.25,1687245378.765625
-45.71,1687245378.78125
-45.56,1687245378.796875
-46.06,1687245378.8125
-46.17,1687245378.828125
-45.06,1687245378.84375
-42.42,1687245378.859375
-38.54,1687245378.875
-34.05,1687245378.890625
-29.47,1687245378.90625
-24.91,1687245378.921875
-19.99,1687245378.9375
-13.98,1687245378.953125
-6.20,1687245378.96875
3.67,1687245378.984375
15.57,1687245379.0
29.34,1687245379.015625
44.87,1687245379.03125
62.20,1687245379.046875
81.26,1687245379.0625
101.65,1687245379.078125
122.55,1687245379.09375
143.15,1687245379.109375
163.05,1687245379.125
182.62,1687245379.140625
202.76,1687245379.15625
224.09,1687245379.171875
246.13,1687245379.1875
266.87,1687245379.203125
283.02,1687245379.21875
290.95,1687245379.234375
287.77,1687245379.25
272.11,1687245379.265625
244.32,1687245379.28125
206.24,1687245379.296875
160.88,1687245379.3125
111.99,1687245379.328125
63.75,1687245379.34375
20.16,1687245379.359375
-15.77,1687245379.375
-42.70,1687245379.390625
-61.08,1687245379.40625
-72.77,1687245379.421875
-79.96,1687245379.4375
-84.30,1687245379.453125
-86.57,1687245379.46875
-86.82,1687245379.484375
-85.02,1687245379.5
-81.53,1687245379.515625
-77.17,1687245379.53125
-72.93,1687245379.546875
-69.55,1687245379.5625
-67.35,1687245379.578125
-66.44,1687245379.59375
-66.86,1687245379.609375
-68.75,1687245379.625
-72.25,1687245379.640625
-77.50,1687245379.65625
-84.56,1687245379.671875
-93.61,1687245379.6875
-104.95,1687245379.703125
-118.80,1687245379.71875
-134.96,1687245379.734375
-152.51,1687245379.75
-169.73,1687245379.765625
-184.34,1687245379.78125
-193.99,1687245379.796875
-196.71,1687245379.8125
-191.22,1687245379.828125
-177.08,1687245379.84375
-154.66,1687245379.859375
-125.20,1687245379.875
-90.93,1687245379.890625
-55.07,1687245379.90625
-21.38,1687245379.921875
6.71,1687245379.9375
27.34,1687245379.953125
40.93,1687245379.96875
50.06,1687245379.984375
58.31,1687245380.0
68.68,1687245380.015625
82.41,1687245380.03125
98.78,1687245380.046875
116.01,1687245380.0625
132.42,1687245380.078125
147.10,1687245380.09375
159.85,1687245380.109375
170.41,1687245380.125
177.94,1687245380.140625
181.05,1687245380.15625
178.52,1687245380.171875
170.14,1687245380.1875
157.00,1687245380.203125
141.10,1687245380.21875
124.38,1687245380.234375
107.98,1687245380.25
92.05,1687245380.265625
76.21,1687245380.28125
60.27,1687245380.296875
44.60,1687245380.3125
30.12,1687245380.328125
17.78,1687245380.34375
8.17,1687245380.359375
1.25,1687245380.375
-3.65,1687245380.390625
-7.55,1687245380.40625
-11.52,1687245380.421875
-16.43,1687245380.4375
-22.90,1687245380.453125
-31.17,1687245380.46875
-40.98,1687245380.484375
-51.42,1687245380.5
-60.92,1687245380.515625
-67.65,1687245380.53125
-70.16,1687245380.546875
-68.12,1687245380.5625
-62.55,1687245380.578125
-55.47,1687245380.59375
-49.07,1687245380.609375
-44.87,1687245380.625
-43.19,1687245380.640625
-43.31,1687245380.65625
-43.98,1687245380.671875
-44.01,1687245380.6875
-42.69,1687245380.703125
-40.04,1687245380.71875
-36.79,1687245380.734375
-33.99,1687245380.75
-32.50,1687245380.765625
-32.53,1687245380.78125
-33.20,1687245380.796875
-32.66,1687245380.8125
-28.68,1687245380.828125
-19.55,1687245380.84375
-4.84,1687245380.859375
14.24,1687245380.875
35.34,1687245380.890625
55.72,1687245380.90625
72.97,1687245380.921875
85.29,1687245380.9375
91.48,1687245380.953125
90.83,1687245380.96875
83.21,1687245380.984375
69.27,1687245381.0
50.70,1687245381.015625
29.84,1687245381.03125
9.15,1687245381.046875
-9.52,1687245381.0625
-25.20,1687245381.078125
-37.52,1687245381.09375
-46.36,1687245381.109375
-51.57,1687245381.125
-53.32,1687245381.140625
-52.59,1687245381.15625
-51.21,1687245381.171875
-51.00,1687245381.1875
-52.68,1687245381.203125
-55.03,1687245381.21875
-55.39,1687245381.234375
-51.10,1687245381.25
-41.28,1687245381.265625
-27.65,1687245381.28125
-14.13,1687245381.296875
-5.24,1687245381.3125
-4.50,1687245381.328125
-13.27,1687245381.34375
-30.48,1687245381.359375
-52.94,1687245381.375
-76.36,1687245381.390625
-96.48,1687245381.40625
-110.59,1687245381.421875
-118.94,1687245381.4375
-125.34,1687245381.453125
-136.22,1687245381.46875
-158.06,1687245381.484375
-194.16,1687245381.5
-242.43,1687245381.515625
-295.49,1687245381.53125
-343.17,1687245381.546875
-376.15,1687245381.5625
-388.97,1687245381.578125
-381.07,1687245381.59375
-355.84,1687245381.609375
-318.78,1687245381.625
-275.86,1687245381.640625
-232.69,1687245381.65625
-194.32,1687245381.671875
-164.87,1687245381.6875
-146.78,1687245381.703125
-139.89,1687245381.71875
-141.05,1687245381.734375
-144.75,1687245381.75
-145.07,1687245381.765625
-138.04,1687245381.78125
-123.33,1687245381.796875
-104.24,1687245381.8125
-85.76,1687245381.828125
-71.98,1687245381.84375
-63.81,1687245381.859375
-58.36,1687245381.875
-49.92,1687245381.890625
-32.11,1687245381.90625
-0.08,1687245381.921875
48.05,1687245381.9375
110.54,1687245381.953125
182.30,1687245381.96875
256.04,1687245381.984375
323.74,1687245382.0
378.39,1687245382.015625
415.55,1687245382.03125
434.06,1687245382.046875
436.02,1687245382.0625
425.79,1687245382.078125
408.51,1687245382.09375
388.68,1687245382.109375
369.12,1687245382.125
350.65,1687245382.140625
332.42,1687245382.15625
312.57,1687245382.171875
289.19,1687245382.1875
261.40,1687245382.203125
229.98,1687245382.21875
197.19,1687245382.234375
165.90,1687245382.25
138.38,1687245382.265625
115.38,1687245382.28125
95.87,1687245382.296875
77.63,1687245382.3125
58.17,1687245382.328125
35.47,1687245382.34375
8.80,1687245382.359375
-20.94,1687245382.375
-51.16,1687245382.390625
-78.05,1687245382.40625
-97.65,1687245382.421875
-107.25,1687245382.4375
-106.50,1687245382.453125
-97.56,1687245382.46875
-84.19,1687245382.484375
-70.23,1687245382.5
-58.34,1687245382.515625
-49.58,1687245382.53125
-43.81,1687245382.546875
-40.69,1687245382.5625
-40.21,1687245382.578125
-42.62,1687245382.59375
-47.93,1687245382.609375
-55.40,1687245382.625
-63.60,1687245382.640625
-70.99,1687245382.65625
-76.59,1687245382.671875
-80.44,1687245382.6875
-83.43,1687245382.703125
-86.45,1687245382.71875
-89.58,1687245382.734375
-91.65,1687245382.75
-90.63,1687245382.765625
-84.91,1687245382.78125
-74.51,1687245382.796875
-61.61,1687245382.8125
-49.80,1687245382.828125
-42.62,1687245382.84375
-42.00,1687245382.859375
-47.60,1687245382.875
-57.56,1687245382.890625
-69.62,1687245382.90625
-82.25,1687245382.921875
-94.73,1687245382.9375
-106.67,1687245382.953125
-117.37,1687245382.96875
-125.67,1687245382.984375
-130.24,1687245383.0
-130.05,1687245383.015625
-124.63,1687245383.03125
-113.84,1687245383.046875
-97.64,1687245383.0625
-76.07,1687245383.078125
-49.64,1687245383.09375
-19.44,1687245383.109375
12.80,1687245383.125
45.25,1687245383.140625
76.52,1687245383.15625
105.90,1687245383.171875
133.32,1687245383.1875
158.76,1687245383.203125
181.79,1687245383.21875
201.60,1687245383.234375
217.32,1687245383.25
228.58,1687245383.265625
235.86,1687245383.28125
240.20,1687245383.296875
242.90,1687245383.3125
244.85,1687245383.328125
246.27,1687245383.34375
246.65,1687245383.359375
245.18,1687245383.375
241.25,1687245383.390625
235.06,1687245383.40625
227.72,1687245383.421875
220.67,1687245383.4375
214.79,1687245383.453125
209.72,1687245383.46875
203.75,1687245383.484375
194.78,1687245383.5
181.70,1687245383.515625
165.17,1687245383.53125
147.34,1687245383.546875
130.47,1687245383.5625
115.21,1687245383.578125
99.52,1687245383.59375
79.12,1687245383.609375
49.16,1687245383.625
6.38,1687245383.640625
-49.24,1687245383.65625
-113.94,1687245383.671875
-180.75,1687245383.6875
-240.81,1687245383.703125
-285.09,1687245383.71875
-306.27,1687245383.734375
-300.53,1687245383.75
-268.64,1687245383.765625
-216.01,1687245383.78125
-151.58,1687245383.796875
-85.48,1687245383.8125
-26.66,1687245383.828125
18.82,1687245383.84375
48.35,1687245383.859375
62.43,1687245383.875
63.66,1687245383.890625
55.94,1687245383.90625
43.70,1687245383.921875
31.16,1687245383.9375
21.55,1687245383.953125
16.59,1687245383.96875
16.30,1687245383.984375
19.57,1687245384.0
24.98,1687245384.015625
31.59,1687245384.03125
38.92,1687245384.046875
46.43,1687245384.0625
52.60,1687245384.078125
54.52,1687245384.09375
48.48,1687245384.109375
31.30,1687245384.125
2.04,1687245384.140625
-36.87,1687245384.15625
-79.86,1687245384.171875
-119.84,1687245384.1875
-150.55,1687245384.203125
-168.51,1687245384.21875
-173.81,1687245384.234375
-169.55,1687245384.25
-160.05,1687245384.265625
-149.08,1687245384.28125
-138.78,1687245384.296875
-129.75,1687245384.3125
-121.66,1687245384.328125
-114.20,1687245384.34375
-107.64,1687245384.359375
-102.57,1687245384.375
-99.62,1687245384.390625
-98.93,1687245384.40625
-100.03,1687245384.421875
-101.88,1687245384.4375
-103.16,1687245384.453125
-102.64,1687245384.46875
-99.51,1687245384.484375
-93.45,1687245384.5
-84.72,1687245384.515625
-73.86,1687245384.53125
-61.50,1687245384.546875
-48.33,1687245384.5625
-35.07,1687245384.578125
-22.56,1687245384.59375
-11.45,1687245384.609375
-1.96,1687245384.625
6.28,1687245384.640625
14.24,1687245384.65625
23.07,1687245384.671875
33.60,1687245384.6875
46.12,1687245384.703125
60.40,1687245384.71875
75.84,1687245384.734375
91.61,1687245384.75
106.46,1687245384.765625
118.65,1687245384.78125
126.20,1687245384.796875
127.60,1687245384.8125
122.71,1687245384.828125
113.16,1687245384.84375
101.85,1687245384.859375
91.76,1687245384.875
84.62,1687245384.890625
80.10,1687245384.90625
76.13,1687245384.921875
70.12,1687245384.9375
60.33,1687245384.953125
46.77,1687245384.96875
31.19,1687245384.984375
16.14,1687245385.0
3.85,1687245385.015625
-4.46,1687245385.03125
-8.70,1687245385.046875
-9.25,1687245385.0625
-6.40,1687245385.078125
0.00,1687245385.09375
10.06,1687245385.109375
23.31,1687245385.125
38.24,1687245385.140625
52.46,1687245385.15625
63.40,1687245385.171875
69.24,1687245385.1875
69.61,1687245385.203125
65.49,1687245385.21875
58.52,1687245385.234375
50.09,1687245385.25
40.80,1687245385.265625
30.56,1687245385.28125
19.22,1687245385.296875
7.15,1687245385.3125
-4.70,1687245385.328125
-15.20,1687245385.34375
-23.65,1687245385.359375
-29.95,1687245385.375
-34.43,1687245385.390625
-37.43,1687245385.40625
-39.15,1687245385.421875
-39.99,1687245385.4375
-40.91,1687245385.453125
-43.46,1687245385.46875
-49.17,1687245385.484375
-58.68,1687245385.5
-71.12,1687245385.515625
-84.29,1687245385.53125
-95.67,1687245385.546875
-103.59,1687245385.5625
-107.84,1687245385.578125
-109.37,1687245385.59375
-109.34,1687245385.609375
-108.32,1687245385.625
-106.11,1687245385.640625
-102.24,1687245385.65625
-96.67,1687245385.671875
-90.05,1687245385.6875
-83.57,1687245385.703125
-78.40,1687245385.71875
-75.17,1687245385.734375
-73.84,1687245385.75
-73.69,1687245385.765625
-73.54,1687245385.78125
-72.06,1687245385.796875
-68.21,1687245385.8125
-61.61,1687245385.828125
-52.80,1687245385.84375
-43.05,1687245385.859375
-33.82,1687245385.875
-26.19,1687245385.890625
-20.39,1687245385.90625
-15.87,1687245385.921875
-11.77,1687245385.9375
-7.48,1687245385.953125
-2.86,1687245385.96875
1.78,1687245385.984375
6.03,1687245386.0
9.77,1687245386.015625
13.17,1687245386.03125
16.41,1687245386.046875
19.37,1687245386.0625
21.50,1687245386.078125
22.02,1687245386.09375
20.37,1687245386.109375
16.51,1687245386.125
11.02,1687245386.140625
4.75,1687245386.15625
-1.57,1687245386.171875
-7.57,1687245386.1875
-13.30,1687245386.203125
-19.01,1687245386.21875
-24.93,1687245386.234375
-31.08,1687245386.25
-37.36,1687245386.265625
-43.75,1687245386.28125
-50.43,1687245386.296875
-57.67,1687245386.3125
-65.52,1687245386.328125
-73.45,1687245386.34375
-80.35,1687245386.359375
-85.07,1687245386.375
-86.95,1687245386.390625
-86.34,1687245386.40625
-84.30,1687245386.421875
-81.90,1687245386.4375
-79.55,1687245386.453125
-76.89,1687245386.46875
-73.26,1687245386.484375
-68.45,1687245386.5
-63.14,1687245386.515625
-58.46,1687245386.53125
-55.17,1687245386.546875
-52.98,1687245386.5625
-50.59,1687245386.578125
-46.75,1687245386.59375
-41.49,1687245386.609375
-36.25,1687245386.625
-32.88,1687245386.640625
-32.07,1687245386.65625
-32.40,1687245386.671875
-31.00,1687245386.6875
-25.21,1687245386.703125
-14.11,1687245386.71875
0.86,1687245386.734375
16.81,1687245386.75
30.79,1687245386.765625
40.70,1687245386.78125
45.33,1687245386.796875
43.53,1687245386.8125
33.85,1687245386.828125
15.42,1687245386.84375
-10.20,1687245386.859375
-38.26,1687245386.875
-61.81,1687245386.890625
-74.32,1687245386.90625
-72.41,1687245386.921875
-57.23,1687245386.9375
-33.77,1687245386.953125
-8.49,1687245386.96875
13.46,1687245386.984375
30.33,1687245387.0
42.90,1687245387.015625
52.38,1687245387.03125
58.72,1687245387.046875
60.52,1687245387.0625
56.61,1687245387.078125
47.26,1687245387.09375
34.51,1687245387.109375
21.22,1687245387.125
10.37,1687245387.140625
3.11,1687245387.15625
-1.85,1687245387.171875
-7.12,1687245387.1875
-14.26,1687245387.203125
-22.05,1687245387.21875
-27.15,1687245387.234375
-26.03,1687245387.25
-16.95,1687245387.265625
0.89,1687245387.28125
27.15,1687245387.296875
60.61,1687245387.3125
99.32,1687245387.328125
141.14,1687245387.34375
184.25,1687245387.359375
227.25,1687245387.375
269.24,1687245387.390625
300.94,1687245387.40625
313.50,1687245387.421875
303.81,1687245387.4375
276.74,1687245387.453125
240.41,1687245387.46875
201.17,1687245387.484375
162.98,1687245387.5
128.69,1687245387.515625
100.26,1687245387.53125
77.98,1687245387.546875
61.31,1687245387.5625
48.93,1687245387.578125
39.13,1687245387.59375
30.54,1687245387.609375
22.76,1687245387.625
16.29,1687245387.640625
11.55,1687245387.65625
8.23,1687245387.671875
5.52,1687245387.6875
3.02,1687245387.703125
1.32,1687245387.71875
0.95,1687245387.734375
1.61,1687245387.75
2.20,1687245387.765625
1.69,1687245387.78125
-0.50,1687245387.796875
-4.33,1687245387.8125
-9.23,1687245387.828125
-13.91,1687245387.84375
-16.73,1687245387.859375
-16.71,1687245387.875
-13.99,1687245387.890625
-9.58,1687245387.90625
-4.81,1687245387.921875
-0.94,1687245387.9375
0.79,1687245387.953125
1.07,1687245387.96875
0.29,1687245387.984375
-0.92,1687245388.0
-2.08,1687245388.015625
-3.01,1687245388.03125
-3.73,1687245388.046875
-4.12,1687245388.0625
-3.92,1687245388.078125
-2.81,1687245388.09375
-0.64,1687245388.109375
2.32,1687245388.125
5.73,1687245388.140625
9.11,1687245388.15625
12.08,1687245388.171875
14.60,1687245388.1875
17.01,1687245388.203125
19.94,1687245388.21875
24.03,1687245388.234375
29.65,1687245388.25
36.57,1687245388.265625
44.25,1687245388.28125
51.96,1687245388.296875
58.88,1687245388.3125
64.33,1687245388.328125
67.78,1687245388.34375
68.95,1687245388.359375
67.86,1687245388.375
64.91,1687245388.390625
60.73,1687245388.40625
56.19,1687245388.421875
52.01,1687245388.4375
48.45,1687245388.453125
45.02,1687245388.46875
40.62,1687245388.484375
33.86,1687245388.5
23.66,1687245388.515625
9.67,1687245388.53125
-7.54,1687245388.546875
-26.59,1687245388.5625
-45.60,1687245388.578125
-62.61,1687245388.59375
-75.96,1687245388.609375
-84.51,1687245388.625
-87.89,1687245388.640625
-86.57,1687245388.65625
-81.82,1687245388.671875
-75.46,1687245388.6875
-69.43,1687245388.703125
-65.31,1687245388.71875
-64.01,1687245388.734375
-65.71,1687245388.75
-69.98,1687245388.765625
-75.96,1687245388.78125
-82.58,1687245388.796875
-88.66,1687245388.8125
-93.13,1687245388.828125
-95.22,1687245388.84375
-94.68,1687245388.859375
-91.82,1687245388.875
-87.47,1687245388.890625
-82.61,1687245388.90625
-78.11,1687245388.921875
-74.46,1687245388.9375
-71.81,1687245388.953125
-70.07,1687245388.96875
-69.12,1687245388.984375
-68.90,1687245389.0
-69.34,1687245389.015625
-70.35,1687245389.03125
-71.64,1687245389.046875
-72.76,1687245389.0625
-73.19,1687245389.078125
-72.39,1687245389.09375
-69.95,1687245389.109375
-65.65,1687245389.125
-59.54,1687245389.140625
-51.97,1687245389.15625
-43.53,1687245389.171875
-34.84,1687245389.1875
-26.41,1687245389.203125
-18.49,1687245389.21875
-11.10,1687245389.234375
-4.19,1687245389.25
2.23,1687245389.265625
7.97,1687245389.28125
12.74,1687245389.296875
16.29,1687245389.3125
18.58,1687245389.328125
19.83,1687245389.34375
20.36,1687245389.359375
20.47,1687245389.375
20.25,1687245389.390625
19.59,1687245389.40625
18.30,1687245389.421875
16.36,1687245389.4375
13.99,1687245389.453125
11.64,1687245389.46875
9.77,1687245389.484375
8.57,1687245389.5
7.90,1687245389.515625
7.32,1687245389.53125
6.40,1687245389.546875
5.04,1687245389.5625
3.50,1687245389.578125
2.26,1687245389.59375
1.75,1687245389.609375
2.04,1687245389.625
2.77,1687245389.640625
3.37,1687245389.65625
3.41,1687245389.671875
2.81,1687245389.6875
1.95,1687245389.703125
1.37,1687245389.71875
1.45,1687245389.734375
2.21,1687245389.75
3.36,1687245389.765625
4.52,1687245389.78125
5.47,1687245389.796875
6.17,1687245389.8125
6.73,1687245389.828125
7.15,1687245389.84375
7.22,1687245389.859375
6.60,1687245389.875
5.06,1687245389.890625
2.69,1687245389.90625
0.01,1687245389.921875
-2.22,1687245389.9375
-3.26,1687245389.953125
-2.70,1687245389.96875
-0.59,1687245389.984375
2.62,1687245390.0
6.27,1687245390.015625
9.68,1687245390.03125
12.36,1687245390.046875
14.09,1687245390.0625
14.96,1687245390.078125
15.30,1687245390.09375
15.53,1687245390.109375
15.98,1687245390.125
16.69,1687245390.140625
17.45,1687245390.15625
17.89,1687245390.171875
17.66,1687245390.1875
16.70,1687245390.203125
15.25,1687245390.21875
13.71,1687245390.234375
12.44,1687245390.25
11.57,1687245390.265625
10.98,1687245390.28125
10.44,1687245390.296875
9.82,1687245390.3125
9.15,1687245390.328125
8.65,1687245390.34375
8.50,1687245390.359375
8.70,1687245390.375
9.01,1687245390.390625
9.06,1687245390.40625
8.49,1687245390.421875
7.15,1687245390.4375
5.17,1687245390.453125
2.86,1687245390.46875
0.54,1687245390.484375
-1.51,1687245390.5
-3.24,1687245390.515625
-4.77,1687245390.53125
-6.32,1687245390.546875
-8.09,1687245390.5625
-10.19,1687245390.578125
-12.53,1687245390.59375
-14.88,1687245390.609375
-16.99,1687245390.625
-18.67,1687245390.640625
-19.96,1687245390.65625
-21.08,1687245390.671875
-22.34,1687245390.6875
-23.98,1687245390.703125
-26.14,1687245390.71875
-28.79,1687245390.734375
-31.83,1687245390.75
-35.17,1687245390.765625
-38.64,1687245390.78125
-42.06,1687245390.796875
-45.05,1687245390.8125
-47.17,1687245390.828125
-47.99,1687245390.84375
-47.26,1687245390.859375
-45.00,1687245390.875
-41.47,1687245390.890625
-37.13,1687245390.90625
-32.40,1687245390.921875
-27.62,1687245390.9375
-22.98,1687245390.953125
-18.58,1687245390.96875
-14.45,1687245390.984375
-10.60,1687245391.0
-7.03,1687245391.015625
-3.71,1687245391.03125
-0.55,1687245391.046875
2.61,1687245391.0625
5.94,1687245391.078125
9.54,1687245391.09375
13.37,1687245391.109375
17.19,1687245391.125
20.69,1687245391.140625
23.63,1687245391.15625
26.00,1687245391.171875
28.05,1687245391.1875
30.12,1687245391.203125
32.50,1687245391.21875
35.26,1687245391.234375
38.21,1687245391.25
41.07,1687245391.265625
43.60,1687245391.28125
45.66,1687245391.296875
47.28,1687245391.3125
48.46,1687245391.328125
49.16,1687245391.34375
49.23,1687245391.359375
48.59,1687245391.375
47.20,1687245391.390625
45.13,1687245391.40625
42.55,1687245391.421875
39.66,1687245391.4375
36.62,1687245391.453125
33.56,1687245391.46875
30.56,1687245391.484375
27.67,1687245391.5
24.90,1687245391.515625
22.24,1687245391.53125
19.58,1687245391.546875
16.80,1687245391.5625
13.76,1687245391.578125
10.36,1687245391.59375
6.60,1687245391.609375
2.66,1687245391.625
-1.13,1687245391.640625
-4.30,1687245391.65625
-6.37,1687245391.671875
-6.99,1687245391.6875
-6.03,1687245391.703125
-3.67,1687245391.71875
-0.28,1687245391.734375
3.67,1687245391.75
7.82,1687245391.765625
12.06,1687245391.78125
16.43,1687245391.796875
21.05,1687245391.8125
25.93,1687245391.828125
30.89,1687245391.84375
35.54,1687245391.859375
39.48,1687245391.875
42.55,1687245391.890625
44.80,1687245391.90625
46.62,1687245391.921875
48.43,1687245391.9375
50.64,1687245391.953125
53.40,1687245391.96875
56.72,1687245391.984375
60.54,1687245392.0
64.84,1687245392.015625
69.66,1687245392.03125
74.95,1687245392.046875
80.46,1687245392.0625
85.62,1687245392.078125
89.61,1687245392.09375
91.65,1687245392.109375
91.26,1687245392.125
88.42,1687245392.140625
83.53,1687245392.15625
77.15,1687245392.171875
69.80,1687245392.1875
61.67,1687245392.203125
52.76,1687245392.21875
42.89,1687245392.234375
31.95,1687245392.25
19.96,1687245392.265625
7.12,1687245392.28125
-6.24,1687245392.296875
-19.78,1687245392.3125
-33.23,1687245392.328125
-46.43,1687245392.34375
-59.39,1687245392.359375
-72.15,1687245392.375
-84.71,1687245392.390625
-96.96,1687245392.40625
-108.63,1687245392.421875
-119.33,1687245392.4375
-128.70,1687245392.453125
-136.53,1687245392.46875
-142.83,1687245392.484375
-147.66,1687245392.5
-151.04,1687245392.515625
-152.77,1687245392.53125
-152.43,1687245392.546875
-149.51,1687245392.5625
