1687677598.00,timestamp
-0.00,1687677598.0
-0.00,1687677598.015625
-0.00,1687677598.03125
-0.00,1687677598.046875
-0.00,1687677598.0625
-0.00,1687677598.078125
-0.00,1687677598.09375
-0.00,1687677598.109375
-0.00,1687677598.125
-0.00,1687677598.140625
0.00,1687677598.15625
0.01,1687677598.171875
0.01,1687677598.1875
-0.00,1687677598.203125
-0.03,1687677598.21875
-0.05,1687677598.234375
-0.05,1687677598.25
0.00,1687677598.265625
0.13,1687677598.28125
0.36,1687677598.296875
0.66,1687677598.3125
1.01,1687677598.328125
1.37,1687677598.34375
1.72,1687677598.359375
2.06,1687677598.375
2.40,1687677598.390625
2.79,1687677598.40625
3.24,1687677598.421875
3.80,1687677598.4375
4.42,1687677598.453125
5.06,1687677598.46875
5.66,1687677598.484375
6.20,1687677598.5
6.68,1687677598.515625
7.15,1687677598.53125
7.68,1687677598.546875
8.31,1687677598.5625
9.14,1687677598.578125
10.09,1687677598.59375
11.04,1687677598.609375
11.88,1687677598.625
12.56,1687677598.640625
13.14,1687677598.65625
13.76,1687677598.671875
14.65,1687677598.6875
15.96,1687677598.703125
17.91,1687677598.71875
20.32,1687677598.734375
22.90,1687677598.75
25.38,1687677598.765625
27.58,1687677598.78125
29.57,1687677598.796875
31.68,1687677598.8125
34.32,1687677598.828125
37.81,1687677598.84375
42.54,1687677598.859375
48.15,1687677598.875
54.10,1687677598.890625
59.83,1687677598.90625
64.97,1687677598.921875
69.58,1687677598.9375
74.14,1687677598.953125
79.34,1687677598.96875
85.71,1687677598.984375
93.76,1687677599.0
103.00,1687677599.015625
112.62,1687677599.03125
121.73,1687677599.046875
129.77,1687677599.0625
136.75,1687677599.078125
143.30,1687677599.09375
150.75,1687677599.109375
157.77,1687677599.125
166.64,1687677599.140625
177.95,1687677599.15625
191.79,1687677599.171875
206.97,1687677599.1875
220.57,1687677599.203125
228.25,1687677599.21875
225.36,1687677599.234375
208.53,1687677599.25
176.87,1687677599.265625
132.76,1687677599.28125
80.05,1687677599.296875
23.07,1687677599.3125
-34.94,1687677599.328125
-92.44,1687677599.34375
-149.16,1687677599.359375
-205.23,1687677599.375
-260.37,1687677599.390625
-313.74,1687677599.40625
-363.87,1687677599.421875
-409.83,1687677599.4375
-450.91,1687677599.453125
-486.50,1687677599.46875
-515.74,1687677599.484375
-537.23,1687677599.5
-549.22,1687677599.515625
-549.96,1687677599.53125
-538.37,1687677599.546875
-514.21,1687677599.5625
-478.67,1687677599.578125
-433.88,1687677599.59375
-382.45,1687677599.609375
-327.02,1687677599.625
-269.84,1687677599.640625
-212.63,1687677599.65625
-156.66,1687677599.671875
-102.95,1687677599.6875
-52.37,1687677599.703125
-5.90,1687677599.71875
35.58,1687677599.734375
71.43,1687677599.75
101.35,1687677599.765625
125.50,1687677599.78125
144.38,1687677599.796875
158.69,1687677599.8125
169.15,1687677599.828125
176.37,1687677599.84375
180.75,1687677599.859375
182.57,1687677599.875
182.07,1687677599.890625
179.51,1687677599.90625
175.23,1687677599.921875
169.65,1687677599.9375
163.18,1687677599.953125
156.15,1687677599.96875
148.81,1687677599.984375
141.30,1687677600.0
133.69,1687677600.015625
126.02,1687677600.03125
118.33,1687677600.046875
110.69,1687677600.0625
103.16,1687677600.078125
95.80,1687677600.09375
88.68,1687677600.109375
81.83,1687677600.125
75.25,1687677600.140625
68.95,1687677600.15625
62.95,1687677600.171875
57.25,1687677600.1875
51.86,1687677600.203125
46.78,1687677600.21875
42.03,1687677600.234375
37.59,1687677600.25
33.45,1687677600.265625
29.61,1687677600.28125
26.07,1687677600.296875
22.81,1687677600.3125
19.83,1687677600.328125
17.11,1687677600.34375
14.67,1687677600.359375
12.48,1687677600.375
10.54,1687677600.390625
8.83,1687677600.40625
7.35,1687677600.421875
6.07,1687677600.4375
4.97,1687677600.453125
4.05,1687677600.46875
3.27,1687677600.484375
2.62,1687677600.5
2.09,1687677600.515625
1.65,1687677600.53125
1.30,1687677600.546875
1.01,1687677600.5625
0.79,1687677600.578125
0.61,1687677600.59375
0.48,1687677600.609375
0.37,1687677600.625
0.29,1687677600.640625
0.24,1687677600.65625
0.20,1687677600.671875
0.18,1687677600.6875
0.18,1687677600.703125
0.18,1687677600.71875
0.20,1687677600.734375
0.22,1687677600.75
0.24,1687677600.765625
0.28,1687677600.78125
0.31,1687677600.796875
0.36,1687677600.8125
0.40,1687677600.828125
0.44,1687677600.84375
0.49,1687677600.859375
0.54,1687677600.875
0.59,1687677600.890625
0.64,1687677600.90625
0.69,1687677600.921875
0.75,1687677600.9375
0.81,1687677600.953125
0.88,1687677600.96875
0.96,1687677600.984375
1.04,1687677601.0
1.13,1687677601.015625
1.23,1687677601.03125
1.35,1687677601.046875
1.48,1687677601.0625
1.62,1687677601.078125
1.78,1687677601.09375
1.97,1687677601.109375
2.17,1687677601.125
2.39,1687677601.140625
2.64,1687677601.15625
2.92,1687677601.171875
3.22,1687677601.1875
3.55,1687677601.203125
3.92,1687677601.21875
4.32,1687677601.234375
4.75,1687677601.25
5.22,1687677601.265625
5.73,1687677601.28125
6.27,1687677601.296875
6.86,1687677601.3125
7.48,1687677601.328125
8.15,1687677601.34375
8.86,1687677601.359375
9.62,1687677601.375
10.42,1687677601.390625
11.27,1687677601.40625
12.16,1687677601.421875
13.10,1687677601.4375
14.08,1687677601.453125
15.13,1687677601.46875
16.25,1687677601.484375
17.42,1687677601.5
18.65,1687677601.515625
19.93,1687677601.53125
21.19,1687677601.546875
22.41,1687677601.5625
23.48,1687677601.578125
24.30,1687677601.59375
24.77,1687677601.609375
24.74,1687677601.625
24.11,1687677601.640625
22.79,1687677601.65625
20.75,1687677601.671875
17.99,1687677601.6875
14.58,1687677601.703125
10.59,1687677601.71875
6.23,1687677601.734375
1.68,1687677601.75
-2.83,1687677601.765625
-7.09,1687677601.78125
-10.91,1687677601.796875
-14.13,1687677601.8125
-16.63,1687677601.828125
-18.36,1687677601.84375
-19.30,1687677601.859375
-19.47,1687677601.875
-19.01,1687677601.890625
-18.05,1687677601.90625
-16.73,1687677601.921875
-15.20,1687677601.9375
-13.58,1687677601.953125
-11.92,1687677601.96875
-10.24,1687677601.984375
-8.53,1687677602.0
-6.77,1687677602.015625
-4.99,1687677602.03125
-3.25,1687677602.046875
-1.62,1687677602.0625
-0.10,1687677602.078125
1.30,1687677602.09375
2.60,1687677602.109375
3.91,1687677602.125
5.31,1687677602.140625
6.92,1687677602.15625
8.64,1687677602.171875
10.39,1687677602.1875
12.07,1687677602.203125
13.64,1687677602.21875
15.10,1687677602.234375
16.55,1687677602.25
18.18,1687677602.265625
20.22,1687677602.28125
22.87,1687677602.296875
25.90,1687677602.3125
29.03,1687677602.328125
31.99,1687677602.34375
34.56,1687677602.359375
36.68,1687677602.375
38.53,1687677602.390625
40.48,1687677602.40625
43.01,1687677602.421875
46.49,1687677602.4375
50.53,1687677602.453125
54.62,1687677602.46875
58.15,1687677602.484375
60.64,1687677602.5
61.93,1687677602.515625
62.29,1687677602.53125
62.35,1687677602.546875
62.86,1687677602.5625
64.39,1687677602.578125
66.36,1687677602.59375
67.92,1687677602.609375
67.97,1687677602.625
65.50,1687677602.640625
59.87,1687677602.65625
50.87,1687677602.671875
38.37,1687677602.6875
21.73,1687677602.703125
4.31,1687677602.71875
-13.19,1687677602.734375
-30.85,1687677602.75
-49.28,1687677602.765625
-69.41,1687677602.78125
-92.29,1687677602.796875
-118.84,1687677602.8125
-149.14,1687677602.828125
-181.73,1687677602.84375
-213.06,1687677602.859375
-238.67,1687677602.875
-253.57,1687677602.890625
-254.27,1687677602.90625
-240.23,1687677602.921875
-214.24,1687677602.9375
-181.38,1687677602.953125
-147.07,1687677602.96875
-115.32,1687677602.984375
-87.83,1687677603.0
-65.02,1687677603.015625
-46.33,1687677603.03125
-31.25,1687677603.046875
-19.60,1687677603.0625
-11.26,1687677603.078125
-5.62,1687677603.09375
-1.40,1687677603.109375
2.92,1687677603.125
8.56,1687677603.140625
15.57,1687677603.15625
23.20,1687677603.171875
30.17,1687677603.1875
35.32,1687677603.203125
38.10,1687677603.21875
38.66,1687677603.234375
37.74,1687677603.25
36.10,1687677603.265625
34.27,1687677603.28125
32.18,1687677603.296875
29.52,1687677603.3125
25.99,1687677603.328125
21.62,1687677603.34375
16.66,1687677603.359375
11.48,1687677603.375
6.22,1687677603.390625
0.65,1687677603.40625
-5.78,1687677603.421875
-13.76,1687677603.4375
-23.58,1687677603.453125
-34.89,1687677603.46875
-46.53,1687677603.484375
-56.79,1687677603.5
-63.94,1687677603.515625
-66.66,1687677603.53125
-64.55,1687677603.546875
-58.07,1687677603.5625
-48.26,1687677603.578125
-36.32,1687677603.59375
-23.25,1687677603.609375
-9.76,1687677603.625
3.54,1687677603.640625
16.02,1687677603.65625
26.96,1687677603.671875
35.72,1687677603.6875
41.99,1687677603.703125
45.93,1687677603.71875
48.01,1687677603.734375
48.79,1687677603.75
48.63,1687677603.765625
47.67,1687677603.78125
45.99,1687677603.796875
43.80,1687677603.8125
41.54,1687677603.828125
39.67,1687677603.84375
38.47,1687677603.859375
37.79,1687677603.875
37.15,1687677603.890625
35.88,1687677603.90625
33.43,1687677603.921875
29.56,1687677603.9375
24.27,1687677603.953125
17.76,1687677603.96875
10.23,1687677603.984375
1.85,1687677604.0
-7.22,1687677604.015625
-16.81,1687677604.03125
-26.78,1687677604.046875
-37.03,1687677604.0625
-47.58,1687677604.078125
-58.61,1687677604.09375
-70.39,1687677604.109375
-83.23,1687677604.125
-97.33,1687677604.140625
-112.49,1687677604.15625
-127.99,1687677604.171875
-142.37,1687677604.1875
-153.72,1687677604.203125
-160.10,1687677604.21875
-160.26,1687677604.234375
-154.06,1687677604.25
-142.58,1687677604.265625
-127.55,1687677604.28125
-110.62,1687677604.296875
-92.78,1687677604.3125
-74.06,1687677604.328125
-53.95,1687677604.34375
-32.01,1687677604.359375
-8.33,1687677604.375
16.31,1687677604.390625
40.69,1687677604.40625
63.53,1687677604.421875
83.94,1687677604.4375
101.43,1687677604.453125
115.95,1687677604.46875
127.64,1687677604.484375
136.59,1687677604.5
142.81,1687677604.515625
146.22,1687677604.53125
146.84,1687677604.546875
144.99,1687677604.5625
141.39,1687677604.578125
136.90,1687677604.59375
132.26,1687677604.609375
127.66,1687677604.625
122.64,1687677604.640625
116.33,1687677604.65625
107.97,1687677604.671875
97.34,1687677604.6875
84.86,1687677604.703125
71.45,1687677604.71875
58.01,1687677604.734375
45.11,1687677604.75
32.83,1687677604.765625
20.84,1687677604.78125
8.65,1687677604.796875
-4.26,1687677604.8125
-18.23,1687677604.828125
-33.33,1687677604.84375
-49.16,1687677604.859375
-64.69,1687677604.875
-78.40,1687677604.890625
-88.51,1687677604.90625
-93.59,1687677604.921875
-92.94,1687677604.9375
-86.74,1687677604.953125
-75.99,1687677604.96875
-62.06,1687677604.984375
-46.30,1687677605.0
-29.80,1687677605.015625
-13.36,1687677605.03125
2.44,1687677605.046875
17.08,1687677605.0625
30.07,1687677605.078125
40.94,1687677605.09375
49.33,1687677605.109375
55.12,1687677605.125
58.48,1687677605.140625
59.86,1687677605.15625
59.94,1687677605.171875
59.51,1687677605.1875
59.22,1687677605.203125
59.36,1687677605.21875
59.89,1687677605.234375
60.40,1687677605.25
60.41,1687677605.265625
59.54,1687677605.28125
57.71,1687677605.296875
54.99,1687677605.3125
51.51,1687677605.328125
47.34,1687677605.34375
42.40,1687677605.359375
36.61,1687677605.375
29.96,1687677605.390625
22.60,1687677605.40625
14.86,1687677605.421875
7.03,1687677605.4375
-0.74,1687677605.453125
-8.57,1687677605.46875
-16.85,1687677605.484375
-26.10,1687677605.5
-36.72,1687677605.515625
-48.68,1687677605.53125
-61.37,1687677605.546875
-73.48,1687677605.5625
-83.30,1687677605.578125
-89.00,1687677605.59375
-89.26,1687677605.609375
-83.55,1687677605.625
-72.32,1687677605.640625
-56.91,1687677605.65625
-39.14,1687677605.671875
-20.84,1687677605.6875
-3.39,1687677605.703125
12.38,1687677605.71875
26.21,1687677605.734375
38.03,1687677605.75
47.79,1687677605.765625
55.26,1687677605.78125
60.26,1687677605.796875
62.89,1687677605.8125
63.64,1687677605.828125
63.33,1687677605.84375
62.77,1687677605.859375
62.37,1687677605.875
62.04,1687677605.890625
61.32,1687677605.90625
59.82,1687677605.921875
57.50,1687677605.9375
54.70,1687677605.953125
51.90,1687677605.96875
49.28,1687677605.984375
46.56,1687677606.0
43.01,1687677606.015625
37.89,1687677606.03125
30.87,1687677606.046875
22.20,1687677606.0625
12.68,1687677606.078125
3.24,1687677606.09375
-5.48,1687677606.109375
-13.47,1687677606.125
-21.31,1687677606.140625
-29.95,1687677606.15625
-40.24,1687677606.171875
-52.56,1687677606.1875
-66.43,1687677606.203125
-80.51,1687677606.21875
-92.85,1687677606.234375
-101.31,1687677606.25
-104.16,1687677606.265625
-100.52,1687677606.28125
-90.65,1687677606.296875
-75.71,1687677606.3125
-57.49,1687677606.328125
-37.88,1687677606.34375
-18.49,1687677606.359375
-0.54,1687677606.375
15.24,1687677606.390625
28.40,1687677606.40625
38.83,1687677606.421875
46.70,1687677606.4375
52.40,1687677606.453125
56.44,1687677606.46875
59.22,1687677606.484375
60.95,1687677606.5
61.65,1687677606.515625
61.33,1687677606.53125
60.17,1687677606.546875
58.56,1687677606.5625
56.99,1687677606.578125
55.81,1687677606.59375
55.10,1687677606.609375
54.72,1687677606.625
54.28,1687677606.640625
53.28,1687677606.65625
51.27,1687677606.671875
47.92,1687677606.6875
43.05,1687677606.703125
36.73,1687677606.71875
29.28,1687677606.734375
21.18,1687677606.75
12.96,1687677606.765625
5.02,1687677606.78125
-2.50,1687677606.796875
-9.72,1687677606.8125
-16.96,1687677606.828125
-24.73,1687677606.84375
-33.55,1687677606.859375
-43.75,1687677606.875
-55.20,1687677606.890625
-67.01,1687677606.90625
-77.58,1687677606.921875
-84.88,1687677606.9375
-87.07,1687677606.953125
-83.27,1687677606.96875
-73.87,1687677606.984375
-60.45,1687677607.0
-45.14,1687677607.015625
-29.85,1687677607.03125
-15.79,1687677607.046875
-3.29,1687677607.0625
7.82,1687677607.078125
17.84,1687677607.09375
26.76,1687677607.109375
34.32,1687677607.125
40.23,1687677607.140625
44.36,1687677607.15625
46.93,1687677607.171875
48.38,1687677607.1875
49.12,1687677607.203125
49.39,1687677607.21875
49.16,1687677607.234375
48.25,1687677607.25
46.56,1687677607.265625
44.18,1687677607.28125
41.48,1687677607.296875
38.96,1687677607.3125
37.01,1687677607.328125
35.70,1687677607.34375
34.66,1687677607.359375
33.22,1687677607.375
30.70,1687677607.390625
26.74,1687677607.40625
21.40,1687677607.421875
15.15,1687677607.4375
8.62,1687677607.453125
2.29,1687677607.46875
-3.63,1687677607.484375
-9.28,1687677607.5
-15.05,1687677607.515625
-21.54,1687677607.53125
-29.38,1687677607.546875
-39.04,1687677607.5625
-50.59,1687677607.578125
-63.41,1687677607.59375
-76.20,1687677607.609375
-87.19,1687677607.625
-94.57,1687677607.640625
-97.04,1687677607.65625
-94.16,1687677607.671875
-86.43,1687677607.6875
-75.07,1687677607.703125
-61.70,1687677607.71875
-47.90,1687677607.734375
-34.91,1687677607.75
-23.42,1687677607.765625
-13.53,1687677607.78125
-4.96,1687677607.796875
2.57,1687677607.8125
9.14,1687677607.828125
14.47,1687677607.84375
18.19,1687677607.859375
20.12,1687677607.875
20.50,1687677607.890625
19.93,1687677607.90625
19.08,1687677607.921875
18.29,1687677607.9375
17.50,1687677607.953125
16.32,1687677607.96875
14.42,1687677607.984375
11.75,1687677608.0
8.67,1687677608.015625
5.81,1687677608.03125
3.81,1687677608.046875
3.11,1687677608.0625
3.82,1687677608.078125
5.60,1687677608.09375
7.79,1687677608.109375
9.57,1687677608.125
10.32,1687677608.140625
9.93,1687677608.15625
8.80,1687677608.171875
7.58,1687677608.1875
6.61,1687677608.203125
5.48,1687677608.21875
3.05,1687677608.234375
-2.18,1687677608.25
-11.22,1687677608.265625
-23.95,1687677608.28125
-38.93,1687677608.296875
-53.85,1687677608.3125
-66.22,1687677608.328125
-74.19,1687677608.34375
-77.00,1687677608.359375
-74.98,1687677608.375
-69.26,1687677608.390625
-61.41,1687677608.40625
-53.09,1687677608.421875
-45.79,1687677608.4375
-40.52,1687677608.453125
-37.42,1687677608.46875
-35.52,1687677608.484375
-33.05,1687677608.5
-28.04,1687677608.515625
-19.39,1687677608.53125
-7.55,1687677608.546875
5.44,1687677608.5625
16.88,1687677608.578125
24.86,1687677608.59375
29.45,1687677608.609375
32.89,1687677608.625
38.55,1687677608.640625
49.30,1687677608.65625
65.91,1687677608.671875
86.34,1687677608.6875
106.45,1687677608.703125
121.39,1687677608.71875
127.29,1687677608.734375
122.33,1687677608.75
106.97,1687677608.765625
83.53,1687677608.78125
55.21,1687677608.796875
25.21,1687677608.8125
-3.96,1687677608.828125
-30.66,1687677608.84375
-54.03,1687677608.859375
-73.80,1687677608.875
-90.20,1687677608.890625
-103.96,1687677608.90625
-116.14,1687677608.921875
-127.80,1687677608.9375
-139.29,1687677608.953125
-149.77,1687677608.96875
-157.05,1687677608.984375
-158.41,1687677609.0
-151.73,1687677609.015625
-136.55,1687677609.03125
-114.37,1687677609.046875
-87.98,1687677609.0625
-60.19,1687677609.078125
-32.80,1687677609.09375
-6.41,1687677609.109375
19.05,1687677609.125
43.47,1687677609.140625
66.10,1687677609.15625
85.81,1687677609.171875
101.79,1687677609.1875
114.07,1687677609.203125
123.48,1687677609.21875
131.07,1687677609.234375
137.40,1687677609.25
142.16,1687677609.265625
144.38,1687677609.28125
143.12,1687677609.296875
138.11,1687677609.3125
130.07,1687677609.328125
120.45,1687677609.34375
110.92,1687677609.359375
102.72,1687677609.375
96.30,1687677609.390625
91.33,1687677609.40625
87.05,1687677609.421875
82.68,1687677609.4375
77.65,1687677609.453125
71.74,1687677609.46875
64.90,1687677609.484375
57.19,1687677609.5
48.66,1687677609.515625
39.48,1687677609.53125
30.06,1687677609.546875
20.99,1687677609.5625
12.87,1687677609.578125
6.08,1687677609.59375
0.60,1687677609.609375
-4.03,1687677609.625
-8.40,1687677609.640625
-13.06,1687677609.65625
-18.33,1687677609.671875
-24.29,1687677609.6875
-30.85,1687677609.703125
-37.83,1687677609.71875
-44.87,1687677609.734375
-51.29,1687677609.75
-56.06,1687677609.765625
-57.89,1687677609.78125
-55.64,1687677609.796875
-48.81,1687677609.8125
-37.86,1687677609.828125
-24.16,1687677609.84375
-9.56,1687677609.859375
4.12,1687677609.875
15.62,1687677609.890625
24.35,1687677609.90625
30.24,1687677609.921875
33.66,1687677609.9375
35.11,1687677609.953125
35.33,1687677609.96875
35.12,1687677609.984375
35.32,1687677610.0
36.42,1687677610.015625
38.46,1687677610.03125
40.94,1687677610.046875
43.16,1687677610.0625
44.64,1687677610.078125
45.41,1687677610.09375
45.95,1687677610.109375
46.90,1687677610.125
48.57,1687677610.140625
50.83,1687677610.15625
53.18,1687677610.171875
54.98,1687677610.1875
55.82,1687677610.203125
55.53,1687677610.21875
54.30,1687677610.234375
52.59,1687677610.25
51.09,1687677610.265625
50.45,1687677610.28125
51.14,1687677610.296875
53.04,1687677610.3125
55.34,1687677610.328125
56.70,1687677610.34375
55.67,1687677610.359375
51.27,1687677610.375
43.53,1687677610.390625
33.59,1687677610.40625
23.43,1687677610.421875
15.26,1687677610.4375
10.78,1687677610.453125
10.58,1687677610.46875
13.96,1687677610.484375
19.10,1687677610.5
23.63,1687677610.515625
25.46,1687677610.53125
23.55,1687677610.546875
18.31,1687677610.5625
11.35,1687677610.578125
4.85,1687677610.59375
0.47,1687677610.609375
-1.25,1687677610.625
-1.17,1687677610.640625
-0.90,1687677610.65625
-1.88,1687677610.671875
-4.53,1687677610.6875
-7.91,1687677610.703125
-10.34,1687677610.71875
-10.37,1687677610.734375
-7.85,1687677610.75
-4.36,1687677610.765625
-2.81,1687677610.78125
-6.54,1687677610.796875
-18.23,1687677610.8125
-39.18,1687677610.828125
-69.06,1687677610.84375
-105.96,1687677610.859375
-146.71,1687677610.875
-187.24,1687677610.890625
-223.23,1687677610.90625
-250.92,1687677610.921875
-268.01,1687677610.9375
-274.07,1687677610.953125
-270.45,1687677610.96875
-259.41,1687677610.984375
-243.29,1687677611.0
-223.99,1687677611.015625
-203.30,1687677611.03125
-183.63,1687677611.046875
-168.22,1687677611.0625
-160.58,1687677611.078125
-162.84,1687677611.09375
-174.28,1687677611.109375
-190.91,1687677611.125
-206.83,1687677611.140625
-216.77,1687677611.15625
-218.41,1687677611.171875
-213.20,1687677611.1875
-205.19,1687677611.203125
-198.65,1687677611.21875
-195.97,1687677611.234375
-196.99,1687677611.25
-200.13,1687677611.265625
-204.07,1687677611.28125
-208.79,1687677611.296875
-215.54,1687677611.3125
-225.56,1687677611.328125
-239.02,1687677611.34375
-254.65,1687677611.359375
-270.31,1687677611.375
-283.97,1687677611.390625
-294.28,1687677611.40625
-300.61,1687677611.421875
-302.59,1687677611.4375
-299.79,1687677611.453125
-291.72,1687677611.46875
-278.18,1687677611.484375
-259.57,1687677611.5
-236.93,1687677611.515625
-211.74,1687677611.53125
-185.61,1687677611.546875
-159.93,1687677611.5625
-135.65,1687677611.578125
-113.01,1687677611.59375
-91.54,1687677611.609375
-69.95,1687677611.625
-46.40,1687677611.640625
-19.06,1687677611.65625
13.21,1687677611.671875
50.45,1687677611.6875
91.34,1687677611.703125
133.41,1687677611.71875
173.56,1687677611.734375
208.98,1687677611.75
238.05,1687677611.765625
260.97,1687677611.78125
279.70,1687677611.796875
297.05,1687677611.8125
315.44,1687677611.828125
335.66,1687677611.84375
356.50,1687677611.859375
375.40,1687677611.875
389.60,1687677611.890625
397.33,1687677611.90625
398.35,1687677611.921875
393.67,1687677611.9375
384.78,1687677611.953125
373.04,1687677611.96875
359.34,1687677611.984375
344.31,1687677612.0
328.47,1687677612.015625
312.25,1687677612.03125
295.89,1687677612.046875
279.24,1687677612.0625
261.88,1687677612.078125
243.52,1687677612.09375
224.28,1687677612.109375
204.80,1687677612.125
186.00,1687677612.140625
168.61,1687677612.15625
152.81,1687677612.171875
138.14,1687677612.1875
123.75,1687677612.203125
108.86,1687677612.21875
93.01,1687677612.234375
76.21,1687677612.25
58.74,1687677612.265625
41.07,1687677612.28125
23.76,1687677612.296875
7.45,1687677612.3125
-7.17,1687677612.328125
-19.59,1687677612.34375
-29.71,1687677612.359375
-37.91,1687677612.375
-44.81,1687677612.390625
-50.85,1687677612.40625
-55.82,1687677612.421875
-58.83,1687677612.4375
-58.64,1687677612.453125
-54.23,1687677612.46875
-45.40,1687677612.484375
-32.92,1687677612.5
-18.26,1687677612.515625
-3.08,1687677612.53125
11.27,1687677612.546875
24.02,1687677612.5625
34.93,1687677612.578125
44.07,1687677612.59375
51.51,1687677612.609375
57.28,1687677612.625
61.30,1687677612.640625
63.49,1687677612.65625
63.90,1687677612.671875
62.82,1687677612.6875
60.68,1687677612.703125
58.06,1687677612.71875
55.49,1687677612.734375
53.39,1687677612.75
51.91,1687677612.765625
50.99,1687677612.78125
50.39,1687677612.796875
49.74,1687677612.8125
48.67,1687677612.828125
46.93,1687677612.84375
44.41,1687677612.859375
41.19,1687677612.875
37.53,1687677612.890625
33.70,1687677612.90625
29.91,1687677612.921875
26.24,1687677612.9375
22.63,1687677612.953125
18.99,1687677612.96875
15.20,1687677612.984375
11.06,1687677613.0
6.34,1687677613.015625
0.85,1687677613.03125
-5.41,1687677613.046875
-12.03,1687677613.0625
-18.08,1687677613.078125
-22.33,1687677613.09375
-23.63,1687677613.109375
-21.23,1687677613.125
-15.21,1687677613.140625
-6.37,1687677613.15625
3.94,1687677613.171875
14.27,1687677613.1875
23.41,1687677613.203125
30.68,1687677613.21875
35.93,1687677613.234375
39.43,1687677613.25
41.66,1687677613.265625
43.04,1687677613.28125
43.80,1687677613.296875
43.96,1687677613.3125
43.31,1687677613.328125
41.62,1687677613.34375
38.70,1687677613.359375
34.55,1687677613.375
29.31,1687677613.390625
23.38,1687677613.40625
17.30,1687677613.421875
11.58,1687677613.4375
6.60,1687677613.453125
2.39,1687677613.46875
-1.36,1687677613.484375
-5.16,1687677613.5
-9.46,1687677613.515625
-14.34,1687677613.53125
-19.48,1687677613.546875
-24.31,1687677613.5625
-28.37,1687677613.578125
-31.62,1687677613.59375
-34.51,1687677613.609375
-37.77,1687677613.625
-42.01,1687677613.640625
-47.34,1687677613.65625
-53.22,1687677613.671875
-58.58,1687677613.6875
-62.16,1687677613.703125
-63.02,1687677613.71875
-60.74,1687677613.734375
-55.57,1687677613.75
-48.15,1687677613.765625
-39.35,1687677613.78125
-29.99,1687677613.796875
-20.77,1687677613.8125
-12.24,1687677613.828125
-4.90,1687677613.84375
0.78,1687677613.859375
4.39,1687677613.875
5.66,1687677613.890625
4.59,1687677613.90625
1.50,1687677613.921875
-2.91,1687677613.9375
-7.73,1687677613.953125
-12.04,1687677613.96875
-15.12,1687677613.984375
-16.70,1687677614.0
-16.98,1687677614.015625
-16.46,1687677614.03125
-15.80,1687677614.046875
-15.49,1687677614.0625
-15.76,1687677614.078125
-16.62,1687677614.09375
-17.95,1687677614.109375
-19.71,1687677614.125
-21.93,1687677614.140625
-24.70,1687677614.15625
-28.02,1687677614.171875
-31.88,1687677614.1875
-36.19,1687677614.203125
-40.85,1687677614.21875
-45.78,1687677614.234375
-50.73,1687677614.25
-55.24,1687677614.265625
-58.59,1687677614.28125
-59.95,1687677614.296875
-58.65,1687677614.3125
-54.49,1687677614.328125
-47.74,1687677614.34375
-39.14,1687677614.359375
-29.63,1687677614.375
-20.08,1687677614.390625
-11.21,1687677614.40625
-3.46,1687677614.421875
2.87,1687677614.4375
7.61,1687677614.453125
10.67,1687677614.46875
12.02,1687677614.484375
11.66,1687677614.5
9.71,1687677614.515625
6.51,1687677614.53125
2.63,1687677614.546875
-1.18,1687677614.5625
-4.14,1687677614.578125
-5.81,1687677614.59375
-6.24,1687677614.609375
-6.03,1687677614.625
-5.99,1687677614.640625
-6.85,1687677614.65625
-8.87,1687677614.671875
-11.86,1687677614.6875
-15.30,1687677614.703125
-18.70,1687677614.71875
-21.79,1687677614.734375
-24.62,1687677614.75
-27.47,1687677614.765625
-30.72,1687677614.78125
-34.68,1687677614.796875
-39.54,1687677614.8125
-45.22,1687677614.828125
-51.35,1687677614.84375
-57.24,1687677614.859375
-62.02,1687677614.875
-64.74,1687677614.890625
-64.68,1687677614.90625
-61.48,1687677614.921875
-55.32,1687677614.9375
-46.85,1687677614.953125
-37.10,1687677614.96875
-27.20,1687677614.984375
-18.15,1687677615.0
-10.60,1687677615.015625
-4.83,1687677615.03125
-0.79,1687677615.046875
1.65,1687677615.0625
2.63,1687677615.078125
2.18,1687677615.09375
0.40,1687677615.109375
-2.44,1687677615.125
-5.82,1687677615.140625
-9.08,1687677615.15625
-11.69,1687677615.171875
-13.39,1687677615.1875
-14.34,1687677615.203125
-14.95,1687677615.21875
-15.60,1687677615.234375
-16.50,1687677615.25
-17.49,1687677615.265625
-18.23,1687677615.28125
-18.38,1687677615.296875
-17.81,1687677615.3125
-16.56,1687677615.328125
-14.85,1687677615.34375
-13.00,1687677615.359375
-11.34,1687677615.375
-10.31,1687677615.390625
-10.37,1687677615.40625
-11.96,1687677615.421875
-15.11,1687677615.4375
-19.30,1687677615.453125
-23.30,1687677615.46875
-25.50,1687677615.484375
-24.49,1687677615.5
-19.54,1687677615.515625
-11.02,1687677615.53125
-0.11,1687677615.546875
11.64,1687677615.5625
22.89,1687677615.578125
32.85,1687677615.59375
41.24,1687677615.609375
48.00,1687677615.625
53.02,1687677615.640625
56.04,1687677615.65625
56.86,1687677615.671875
55.53,1687677615.6875
52.52,1687677615.703125
48.60,1687677615.71875
44.57,1687677615.734375
40.95,1687677615.75
37.83,1687677615.765625
34.97,1687677615.78125
32.04,1687677615.796875
28.79,1687677615.8125
25.20,1687677615.828125
21.45,1687677615.84375
17.73,1687677615.859375
14.12,1687677615.875
10.53,1687677615.890625
6.78,1687677615.90625
2.69,1687677615.921875
-1.79,1687677615.9375
-6.52,1687677615.953125
-11.31,1687677615.96875
-16.00,1687677615.984375
-20.71,1687677616.0
-25.78,1687677616.015625
-31.68,1687677616.03125
-38.74,1687677616.046875
-46.82,1687677616.0625
-55.24,1687677616.078125
-62.73,1687677616.09375
-67.83,1687677616.109375
-69.23,1687677616.125
-66.18,1687677616.140625
-58.69,1687677616.15625
-47.52,1687677616.171875
-33.96,1687677616.1875
-19.48,1687677616.203125
-5.48,1687677616.21875
7.06,1687677616.234375
17.58,1687677616.25
25.94,1687677616.265625
32.27,1687677616.28125
36.82,1687677616.296875
39.86,1687677616.3125
41.63,1687677616.328125
42.37,1687677616.34375
42.27,1687677616.359375
41.51,1687677616.375
40.26,1687677616.390625
38.69,1687677616.40625
37.00,1687677616.421875
35.39,1687677616.4375
33.99,1687677616.453125
32.83,1687677616.46875
31.82,1687677616.484375
30.74,1687677616.5
29.31,1687677616.515625
27.29,1687677616.53125
24.43,1687677616.546875
20.53,1687677616.5625
15.46,1687677616.578125
9.30,1687677616.59375
2.35,1687677616.609375
-4.85,1687677616.625
-11.64,1687677616.640625
-17.56,1687677616.65625
-22.54,1687677616.671875
-26.96,1687677616.6875
-31.51,1687677616.703125
-36.92,1687677616.71875
-43.65,1687677616.734375
-51.69,1687677616.75
-60.46,1687677616.765625
-68.86,1687677616.78125
-75.39,1687677616.796875
-78.46,1687677616.8125
-76.78,1687677616.828125
-69.79,1687677616.84375
-57.94,1687677616.859375
-42.66,1687677616.875
-25.89,1687677616.890625
-9.56,1687677616.90625
4.98,1687677616.921875
17.04,1687677616.9375
26.50,1687677616.953125
33.48,1687677616.96875
38.09,1687677616.984375
40.41,1687677617.0
40.60,1687677617.015625
39.00,1687677617.03125
36.26,1687677617.046875
33.13,1687677617.0625
30.38,1687677617.078125
28.47,1687677617.09375
27.54,1687677617.109375
27.29,1687677617.125
27.20,1687677617.140625
26.72,1687677617.15625
25.50,1687677617.171875
23.50,1687677617.1875
20.98,1687677617.203125
18.33,1687677617.21875
15.79,1687677617.234375
13.38,1687677617.25
10.87,1687677617.265625
7.94,1687677617.28125
4.30,1687677617.296875
-0.14,1687677617.3125
-5.29,1687677617.328125
-10.94,1687677617.34375
-16.83,1687677617.359375
-22.71,1687677617.375
-28.32,1687677617.390625
-33.49,1687677617.40625
-38.13,1687677617.421875
-42.42,1687677617.4375
-46.70,1687677617.453125
-51.51,1687677617.46875
-57.30,1687677617.484375
-64.19,1687677617.5
-71.67,1687677617.515625
-78.55,1687677617.53125
-83.12,1687677617.546875
-83.63,1687677617.5625
-78.81,1687677617.578125
-68.36,1687677617.59375
-53.01,1687677617.609375
-34.29,1687677617.625
-14.01,1687677617.640625
6.29,1687677617.65625
25.61,1687677617.671875
43.37,1687677617.6875
59.23,1687677617.703125
72.85,1687677617.71875
83.78,1687677617.734375
91.65,1687677617.75
96.39,1687677617.765625
98.31,1687677617.78125
98.05,1687677617.796875
96.30,1687677617.8125
93.71,1687677617.828125
90.79,1687677617.84375
88.10,1687677617.859375
86.15,1687677617.875
85.27,1687677617.890625
85.25,1687677617.90625
84.94,1687677617.921875
82.39,1687677617.9375
75.30,1687677617.953125
61.74,1687677617.96875
40.97,1687677617.984375
13.69,1687677618.0
-18.25,1687677618.015625
-52.38,1687677618.03125
-86.17,1687677618.046875
-117.31,1687677618.0625
-143.67,1687677618.078125
-163.41,1687677618.09375
-175.11,1687677618.109375
-178.27,1687677618.125
-173.66,1687677618.140625
-163.25,1687677618.15625
-149.70,1687677618.171875
-135.43,1687677618.1875
-122.00,1687677618.203125
-109.92,1687677618.21875
-98.94,1687677618.234375
-88.74,1687677618.25
-79.33,1687677618.265625
-71.05,1687677618.28125
-64.14,1687677618.296875
-58.41,1687677618.3125
-52.95,1687677618.328125
-46.43,1687677618.34375
-37.64,1687677618.359375
-25.93,1687677618.375
-11.44,1687677618.390625
5.11,1687677618.40625
22.75,1687677618.421875
40.63,1687677618.4375
58.14,1687677618.453125
74.80,1687677618.46875
90.11,1687677618.484375
103.50,1687677618.5
114.48,1687677618.515625
122.72,1687677618.53125
128.24,1687677618.546875
131.36,1687677618.5625
132.54,1687677618.578125
132.22,1687677618.59375
130.66,1687677618.609375
127.94,1687677618.625
123.99,1687677618.640625
118.80,1687677618.65625
112.40,1687677618.671875
104.94,1687677618.6875
96.68,1687677618.703125
87.84,1687677618.71875
78.65,1687677618.734375
69.26,1687677618.75
59.78,1687677618.765625
50.34,1687677618.78125
41.10,1687677618.796875
32.23,1687677618.8125
23.81,1687677618.828125
15.90,1687677618.84375
8.39,1687677618.859375
1.14,1687677618.875
-6.03,1687677618.890625
-13.19,1687677618.90625
-20.32,1687677618.921875
-27.30,1687677618.9375
-33.89,1687677618.953125
-39.84,1687677618.96875
-44.92,1687677618.984375
-49.06,1687677619.0
-52.25,1687677619.015625
-54.74,1687677619.03125
-56.76,1687677619.046875
-58.47,1687677619.0625
-59.67,1687677619.078125
-59.81,1687677619.09375
-58.08,1687677619.109375
-53.69,1687677619.125
-46.15,1687677619.140625
-35.45,1687677619.15625
-22.04,1687677619.171875
-6.69,1687677619.1875
9.74,1687677619.203125
26.40,1687677619.21875
42.43,1687677619.234375
57.07,1687677619.25
69.71,1687677619.265625
79.94,1687677619.28125
87.69,1687677619.296875
93.27,1687677619.3125
97.23,1687677619.328125
100.18,1687677619.34375
102.63,1687677619.359375
104.94,1687677619.375
107.27,1687677619.390625
109.63,1687677619.40625
111.93,1687677619.421875
114.02,1687677619.4375
115.76,1687677619.453125
117.04,1687677619.46875
117.78,1687677619.484375
117.87,1687677619.5
117.05,1687677619.515625
114.82,1687677619.53125
110.49,1687677619.546875
103.42,1687677619.5625
93.23,1687677619.578125
80.05,1687677619.59375
64.51,1687677619.609375
47.51,1687677619.625
29.89,1687677619.640625
12.20,1687677619.65625
-5.41,1687677619.671875
-23.16,1687677619.6875
-41.45,1687677619.703125
-60.73,1687677619.71875
-81.48,1687677619.734375
-103.89,1687677619.75
-127.77,1687677619.765625
-152.19,1687677619.78125
-175.45,1687677619.796875
-195.27,1687677619.8125
-209.33,1687677619.828125
-216.04,1687677619.84375
-215.04,1687677619.859375
-207.24,1687677619.875
-194.44,1687677619.890625
-178.66,1687677619.90625
-161.56,1687677619.921875
-144.34,1687677619.9375
-127.81,1687677619.953125
-112.73,1687677619.96875
-99.85,1687677619.984375
-89.76,1687677620.0
-82.49,1687677620.015625
-77.33,1687677620.03125
-73.00,1687677620.046875
-68.15,1687677620.0625
-62.01,1687677620.078125
-54.72,1687677620.09375
-47.12,1687677620.109375
-40.18,1687677620.125
-34.42,1687677620.140625
-29.65,1687677620.15625
-25.13,1687677620.171875
-20.18,1687677620.1875
-14.60,1687677620.203125
-8.86,1687677620.21875
-3.88,1687677620.234375
-0.60,1687677620.25
0.42,1687677620.265625
-0.89,1687677620.28125
-4.25,1687677620.296875
-9.22,1687677620.3125
-15.37,1687677620.328125
-22.29,1687677620.34375
-29.51,1687677620.359375
-36.58,1687677620.375
-43.22,1687677620.390625
-49.58,1687677620.40625
-56.29,1687677620.421875
-64.33,1687677620.4375
-74.48,1687677620.453125
-86.78,1687677620.46875
-100.23,1687677620.484375
-112.92,1687677620.5
-122.49,1687677620.515625
-126.83,1687677620.53125
-124.66,1687677620.546875
-115.74,1687677620.5625
-100.72,1687677620.578125
-80.89,1687677620.59375
-57.88,1687677620.609375
-33.48,1687677620.625
-9.52,1687677620.640625
12.45,1687677620.65625
31.28,1687677620.671875
46.51,1687677620.6875
58.26,1687677620.703125
66.98,1687677620.71875
73.19,1687677620.734375
77.21,1687677620.75
79.33,1687677620.765625
79.91,1687677620.78125
79.53,1687677620.796875
78.82,1687677620.8125
78.23,1687677620.828125
77.79,1687677620.84375
77.22,1687677620.859375
76.25,1687677620.875
74.88,1687677620.890625
73.52,1687677620.90625
72.55,1687677620.921875
71.95,1687677620.9375
71.02,1687677620.953125
68.61,1687677620.96875
63.75,1687677620.984375
56.17,1687677621.0
46.47,1687677621.015625
35.78,1687677621.03125
25.14,1687677621.046875
15.04,1687677621.0625
5.31,1687677621.078125
-4.55,1687677621.09375
-15.02,1687677621.109375
-26.40,1687677621.125
-38.85,1687677621.140625
-52.42,1687677621.15625
-66.95,1687677621.171875
-81.63,1687677621.1875
-94.76,1687677621.203125
-103.87,1687677621.21875
-106.45,1687677621.234375
-100.93,1687677621.25
-87.36,1687677621.265625
-67.44,1687677621.28125
-43.81,1687677621.296875
-19.08,1687677621.3125
4.92,1687677621.328125
27.21,1687677621.34375
47.31,1687677621.359375
64.80,1687677621.375
79.02,1687677621.390625
89.35,1687677621.40625
95.52,1687677621.421875
97.96,1687677621.4375
97.69,1687677621.453125
96.03,1687677621.46875
94.15,1687677621.484375
92.80,1687677621.5
92.22,1687677621.515625
92.21,1687677621.53125
92.30,1687677621.546875
92.01,1687677621.5625
90.99,1687677621.578125
89.14,1687677621.59375
86.63,1687677621.609375
83.72,1687677621.625
80.46,1687677621.640625
76.54,1687677621.65625
71.30,1687677621.671875
64.04,1687677621.6875
54.49,1687677621.703125
43.08,1687677621.71875
30.83,1687677621.734375
18.97,1687677621.75
8.30,1687677621.765625
-1.05,1687677621.78125
-9.72,1687677621.796875
-18.62,1687677621.8125
-28.59,1687677621.828125
-40.08,1687677621.84375
-53.15,1687677621.859375
-67.40,1687677621.875
-81.93,1687677621.890625
-95.16,1687677621.90625
-104.91,1687677621.921875
-108.70,1687677621.9375
-104.53,1687677621.953125
-91.70,1687677621.96875
-71.27,1687677621.984375
-45.80,1687677622.0
-18.52,1687677622.015625
7.67,1687677622.03125
30.86,1687677622.046875
50.23,1687677622.0625
65.71,1687677622.078125
77.43,1687677622.09375
85.44,1687677622.109375
89.76,1687677622.125
90.64,1687677622.140625
88.80,1687677622.15625
85.35,1687677622.171875
81.53,1687677622.1875
78.33,1687677622.203125
76.19,1687677622.21875
74.97,1687677622.234375
74.18,1687677622.25
73.26,1687677622.265625
71.91,1687677622.28125
70.14,1687677622.296875
68.16,1687677622.3125
66.10,1687677622.328125
63.89,1687677622.34375
61.15,1687677622.359375
57.35,1687677622.375
51.98,1687677622.390625
44.79,1687677622.40625
35.88,1687677622.421875
25.69,1687677622.4375
14.91,1687677622.453125
4.33,1687677622.46875
-5.36,1687677622.484375
-13.74,1687677622.5
-20.85,1687677622.515625
-27.22,1687677622.53125
-33.79,1687677622.546875
-41.65,1687677622.5625
-51.54,1687677622.578125
-63.51,1687677622.59375
-76.63,1687677622.609375
-89.07,1687677622.625
-98.49,1687677622.640625
-102.65,1687677622.65625
-100.02,1687677622.671875
-90.24,1687677622.6875
-74.13,1687677622.703125
-53.49,1687677622.71875
-30.70,1687677622.734375
-8.06,1687677622.75
12.58,1687677622.765625
30.12,1687677622.78125
44.27,1687677622.796875
55.31,1687677622.8125
63.76,1687677622.828125
69.99,1687677622.84375
74.11,1687677622.859375
76.01,1687677622.875
75.71,1687677622.890625
73.53,1687677622.90625
70.29,1687677622.921875
66.90,1687677622.9375
64.06,1687677622.953125
61.98,1687677622.96875
60.33,1687677622.984375
58.58,1687677623.0
56.32,1687677623.015625
53.50,1687677623.03125
50.32,1687677623.046875
47.07,1687677623.0625
43.81,1687677623.078125
40.31,1687677623.09375
36.26,1687677623.109375
31.35,1687677623.125
25.49,1687677623.140625
18.77,1687677623.15625
11.38,1687677623.171875
3.53,1687677623.1875
-4.47,1687677623.203125
-12.25,1687677623.21875
-19.35,1687677623.234375
-25.44,1687677623.25
-30.48,1687677623.265625
-34.83,1687677623.28125
-39.22,1687677623.296875
-44.51,1687677623.3125
-51.38,1687677623.328125
-60.01,1687677623.34375
-69.95,1687677623.359375
-80.13,1687677623.375
-89.02,1687677623.390625
-94.98,1687677623.40625
-96.59,1687677623.421875
-92.99,1687677623.4375
-84.06,1687677623.453125
-70.49,1687677623.46875
-53.64,1687677623.484375
-35.26,1687677623.5
-17.10,1687677623.515625
-0.57,1687677623.53125
13.47,1687677623.546875
24.78,1687677623.5625
33.60,1687677623.578125
40.31,1687677623.59375
45.26,1687677623.609375
48.64,1687677623.625
50.48,1687677623.640625
50.85,1687677623.65625
50.03,1687677623.671875
48.46,1687677623.6875
46.69,1687677623.703125
45.16,1687677623.71875
44.13,1687677623.734375
43.62,1687677623.75
43.47,1687677623.765625
43.48,1687677623.78125
43.33,1687677623.796875
42.70,1687677623.8125
41.29,1687677623.828125
38.92,1687677623.84375
35.57,1687677623.859375
31.47,1687677623.875
26.87,1687677623.890625
22.01,1687677623.90625
16.99,1687677623.921875
11.79,1687677623.9375
6.43,1687677623.953125
0.96,1687677623.96875
-4.51,1687677623.984375
-9.90,1687677624.0
-15.18,1687677624.015625
-20.40,1687677624.03125
-25.56,1687677624.046875
-30.60,1687677624.0625
-35.44,1687677624.078125
-40.14,1687677624.09375
-45.02,1687677624.109375
-50.61,1687677624.125
-57.39,1687677624.140625
-65.37,1687677624.15625
-73.79,1687677624.171875
-81.17,1687677624.1875
-85.69,1687677624.203125
-85.93,1687677624.21875
-81.34,1687677624.234375
-72.40,1687677624.25
-60.34,1687677624.265625
-46.63,1687677624.28125
-32.53,1687677624.296875
-18.85,1687677624.3125
-6.05,1687677624.328125
5.52,1687677624.34375
15.47,1687677624.359375
23.42,1687677624.375
29.16,1687677624.390625
32.81,1687677624.40625
34.81,1687677624.421875
35.72,1687677624.4375
36.04,1687677624.453125
36.03,1687677624.46875
35.78,1687677624.484375
35.33,1687677624.5
34.69,1687677624.515625
34.01,1687677624.53125
33.41,1687677624.546875
32.94,1687677624.5625
32.48,1687677624.578125
31.86,1687677624.59375
30.83,1687677624.609375
29.24,1687677624.625
27.03,1687677624.640625
24.21,1687677624.65625
20.85,1687677624.671875
17.06,1687677624.6875
13.02,1687677624.703125
8.95,1687677624.71875
5.09,1687677624.734375
1.54,1687677624.75
-1.81,1687677624.765625
-5.37,1687677624.78125
-9.60,1687677624.796875
-14.92,1687677624.8125
-21.36,1687677624.828125
-28.54,1687677624.84375
-35.86,1687677624.859375
-42.75,1687677624.875
-48.97,1687677624.890625
-54.79,1687677624.90625
-60.77,1687677624.921875
-67.52,1687677624.9375
-75.40,1687677624.953125
-84.24,1687677624.96875
-93.35,1687677624.984375
-101.59,1687677625.0
-107.65,1687677625.015625
-110.31,1687677625.03125
-108.72,1687677625.046875
-102.76,1687677625.0625
-93.20,1687677625.078125
-81.66,1687677625.09375
-70.23,1687677625.109375
-60.91,1687677625.125
-54.96,1687677625.140625
-52.72,1687677625.15625
-53.70,1687677625.171875
-57.07,1687677625.1875
-62.05,1687677625.203125
-68.10,1687677625.21875
-74.95,1687677625.234375
-82.47,1687677625.25
-90.49,1687677625.265625
-98.90,1687677625.28125
-107.63,1687677625.296875
-116.63,1687677625.3125
-125.71,1687677625.328125
-134.26,1687677625.34375
-141.26,1687677625.359375
-145.36,1687677625.375
-145.27,1687677625.390625
-140.02,1687677625.40625
-129.13,1687677625.421875
-112.45,1687677625.4375
-90.07,1687677625.453125
-62.26,1687677625.46875
-29.56,1687677625.484375
7.06,1687677625.5
46.19,1687677625.515625
86.07,1687677625.53125
124.81,1687677625.546875
160.55,1687677625.5625
191.72,1687677625.578125
217.18,1687677625.59375
236.35,1687677625.609375
249.31,1687677625.625
256.72,1687677625.640625
259.54,1687677625.65625
258.69,1687677625.671875
254.66,1687677625.6875
247.43,1687677625.703125
236.58,1687677625.71875
221.74,1687677625.734375
202.93,1687677625.75
180.84,1687677625.765625
156.72,1687677625.78125
132.19,1687677625.796875
108.91,1687677625.8125
88.33,1687677625.828125
71.45,1687677625.84375
58.72,1687677625.859375
49.89,1687677625.875
44.07,1687677625.890625
39.96,1687677625.90625
36.28,1687677625.921875
32.23,1687677625.9375
27.67,1687677625.953125
23.10,1687677625.96875
19.08,1687677625.984375
15.84,1687677626.0
12.96,1687677626.015625
9.58,1687677626.03125
4.84,1687677626.046875
-1.55,1687677626.0625
-8.97,1687677626.078125
-16.04,1687677626.09375
-21.17,1687677626.109375
-23.27,1687677626.125
-22.21,1687677626.140625
-18.88,1687677626.15625
-14.74,1687677626.171875
-11.16,1687677626.1875
-8.91,1687677626.203125
-7.99,1687677626.21875
-7.84,1687677626.234375
-7.87,1687677626.25
-7.72,1687677626.265625
-7.38,1687677626.28125
-6.94,1687677626.296875
-6.41,1687677626.3125
-5.67,1687677626.328125
-4.68,1687677626.34375
-3.70,1687677626.359375
-3.33,1687677626.375
-4.20,1687677626.390625
-6.58,1687677626.40625
-10.15,1687677626.421875
-14.17,1687677626.4375
-17.99,1687677626.453125
-21.61,1687677626.46875
-25.86,1687677626.484375
-32.12,1687677626.5
-41.60,1687677626.515625
-54.76,1687677626.53125
-71.04,1687677626.546875
-89.05,1687677626.5625
-107.01,1687677626.578125
-123.17,1687677626.59375
-136.08,1687677626.609375
-144.62,1687677626.625
-147.97,1687677626.640625
-145.82,1687677626.65625
-138.52,1687677626.671875
-127.20,1687677626.6875
-113.56,1687677626.703125
-99.42,1687677626.71875
-86.15,1687677626.734375
-74.36,1687677626.75
-63.96,1687677626.765625
-54.57,1687677626.78125
-45.99,1687677626.796875
-38.43,1687677626.8125
-32.36,1687677626.828125
-28.14,1687677626.84375
-25.65,1687677626.859375
-24.17,1687677626.875
-22.66,1687677626.890625
-20.12,1687677626.90625
-15.94,1687677626.921875
-10.05,1687677626.9375
-2.80,1687677626.953125
5.18,1687677626.96875
13.19,1687677626.984375
20.50,1687677627.0
26.38,1687677627.015625
30.27,1687677627.03125
31.86,1687677627.046875
31.33,1687677627.0625
29.27,1687677627.078125
26.52,1687677627.09375
23.83,1687677627.109375
21.59,1687677627.125
19.76,1687677627.140625
18.04,1687677627.15625
16.13,1687677627.171875
13.89,1687677627.1875
11.35,1687677627.203125
8.57,1687677627.21875
5.47,1687677627.234375
1.95,1687677627.25
-1.98,1687677627.265625
-6.06,1687677627.28125
-9.71,1687677627.296875
-12.36,1687677627.3125
-13.71,1687677627.328125
-14.06,1687677627.34375
-14.29,1687677627.359375
-15.50,1687677627.375
-18.50,1687677627.390625
-23.45,1687677627.40625
-29.70,1687677627.421875
-36.02,1687677627.4375
-41.02,1687677627.453125
-43.59,1687677627.46875
-43.14,1687677627.484375
-39.68,1687677627.5
-33.67,1687677627.515625
-25.91,1687677627.53125
-17.35,1687677627.546875
-9.06,1687677627.5625
-2.02,1687677627.578125
3.00,1687677627.59375
5.71,1687677627.609375
6.30,1687677627.625
5.43,1687677627.640625
3.91,1687677627.65625
2.40,1687677627.671875
1.26,1687677627.6875
0.60,1687677627.703125
0.42,1687677627.71875
0.82,1687677627.734375
1.96,1687677627.75
3.90,1687677627.765625
6.46,1687677627.78125
9.10,1687677627.796875
11.23,1687677627.8125
12.46,1687677627.828125
12.84,1687677627.84375
12.88,1687677627.859375
13.18,1687677627.875
14.20,1687677627.890625
15.99,1687677627.90625
18.23,1687677627.921875
20.37,1687677627.9375
21.82,1687677627.953125
22.18,1687677627.96875
21.21,1687677627.984375
18.88,1687677628.0
15.31,1687677628.015625
10.78,1687677628.03125
5.68,1687677628.046875
0.45,1687677628.0625
-4.52,1687677628.078125
-9.01,1687677628.09375
-12.97,1687677628.109375
-16.65,1687677628.125
-20.44,1687677628.140625
-24.92,1687677628.15625
-30.64,1687677628.171875
-37.88,1687677628.1875
-46.41,1687677628.203125
-55.28,1687677628.21875
-62.80,1687677628.234375
-66.93,1687677628.25
-65.87,1687677628.265625
-58.74,1687677628.28125
-45.97,1687677628.296875
-29.22,1687677628.3125
-10.85,1687677628.328125
6.85,1687677628.34375
22.40,1687677628.359375
35.30,1687677628.375
45.79,1687677628.390625
54.41,1687677628.40625
61.47,1687677628.421875
66.86,1687677628.4375
70.32,1687677628.453125
71.75,1687677628.46875
71.50,1687677628.484375
70.30,1687677628.5
69.02,1687677628.515625
68.30,1687677628.53125
68.29,1687677628.546875
68.76,1687677628.5625
69.23,1687677628.578125
69.30,1687677628.59375
68.78,1687677628.609375
67.71,1687677628.625
66.29,1687677628.640625
64.67,1687677628.65625
62.87,1687677628.671875
60.73,1687677628.6875
58.02,1687677628.703125
54.46,1687677628.71875
49.87,1687677628.734375
44.18,1687677628.75
37.48,1687677628.765625
29.95,1687677628.78125
21.88,1687677628.796875
13.64,1687677628.8125
5.62,1687677628.828125
-1.81,1687677628.84375
-8.51,1687677628.859375
-14.61,1687677628.875
-20.59,1687677628.890625
-27.09,1687677628.90625
-34.75,1687677628.921875
-43.82,1687677628.9375
-53.94,1687677628.953125
-64.11,1687677628.96875
-72.79,1687677628.984375
-78.30,1687677629.0
-79.23,1687677629.015625
-74.88,1687677629.03125
-65.48,1687677629.046875
-52.10,1687677629.0625
-36.37,1687677629.078125
-20.07,1687677629.09375
-4.71,1687677629.109375
8.67,1687677629.125
19.66,1687677629.140625
28.31,1687677629.15625
34.96,1687677629.171875
40.11,1687677629.1875
44.22,1687677629.203125
47.63,1687677629.21875
50.50,1687677629.234375
52.87,1687677629.25
54.71,1687677629.265625
55.96,1687677629.28125
56.56,1687677629.296875
56.47,1687677629.3125
55.63,1687677629.328125
54.00,1687677629.34375
51.60,1687677629.359375
48.58,1687677629.375
45.25,1687677629.390625
42.03,1687677629.40625
39.22,1687677629.421875
36.87,1687677629.4375
34.71,1687677629.453125
32.15,1687677629.46875
28.57,1687677629.484375
23.50,1687677629.5
16.99,1687677629.515625
9.50,1687677629.53125
1.75,1687677629.546875
-5.54,1687677629.5625
-11.98,1687677629.578125
-17.56,1687677629.59375
-22.60,1687677629.609375
-27.52,1687677629.625
-32.66,1687677629.640625
-38.24,1687677629.65625
-44.35,1687677629.671875
-51.04,1687677629.6875
-58.26,1687677629.703125
-65.64,1687677629.71875
-72.36,1687677629.734375
-77.16,1687677629.75
-78.60,1687677629.765625
-75.57,1687677629.78125
-67.79,1687677629.796875
-55.93,1687677629.8125
-41.46,1687677629.828125
-26.12,1687677629.84375
-11.37,1687677629.859375
1.83,1687677629.875
13.06,1687677629.890625
22.15,1687677629.90625
29.03,1687677629.921875
33.63,1687677629.9375
36.11,1687677629.953125
36.91,1687677629.96875
36.77,1687677629.984375
36.43,1687677630.0
36.33,1687677630.015625
36.47,1687677630.03125
36.44,1687677630.046875
35.77,1687677630.0625
34.21,1687677630.078125
31.93,1687677630.09375
29.48,1687677630.109375
27.44,1687677630.125
26.22,1687677630.140625
25.83,1687677630.15625
25.87,1687677630.171875
25.65,1687677630.1875
24.52,1687677630.203125
21.98,1687677630.21875
17.89,1687677630.234375
12.52,1687677630.25
6.36,1687677630.265625
0.04,1687677630.28125
-5.88,1687677630.296875
-11.10,1687677630.3125
-15.55,1687677630.328125
-19.51,1687677630.34375
-23.43,1687677630.359375
-27.83,1687677630.375
-33.12,1687677630.390625
-39.33,1687677630.40625
-46.02,1687677630.421875
-52.23,1687677630.4375
-56.73,1687677630.453125
-58.32,1687677630.46875
-56.33,1687677630.484375
-50.76,1687677630.5
-42.33,1687677630.515625
-32.17,1687677630.53125
-21.44,1687677630.546875
-11.05,1687677630.5625
-1.51,1687677630.578125
6.92,1687677630.59375
14.13,1687677630.609375
19.94,1687677630.625
24.17,1687677630.640625
26.75,1687677630.65625
27.78,1687677630.671875
27.69,1687677630.6875
27.13,1687677630.703125
26.79,1687677630.71875
27.17,1687677630.734375
28.37,1687677630.75
30.14,1687677630.765625
31.95,1687677630.78125
33.29,1687677630.796875
33.86,1687677630.8125
33.65,1687677630.828125
32.82,1687677630.84375
31.57,1687677630.859375
29.93,1687677630.875
27.75,1687677630.890625
24.82,1687677630.90625
21.05,1687677630.921875
16.57,1687677630.9375
11.67,1687677630.953125
6.76,1687677630.96875
2.18,1687677630.984375
-1.91,1687677631.0
-5.50,1687677631.015625
-8.72,1687677631.03125
-11.76,1687677631.046875
-14.91,1687677631.0625
-18.53,1687677631.078125
-23.05,1687677631.09375
-28.84,1687677631.109375
-35.99,1687677631.125
-44.15,1687677631.140625
-52.36,1687677631.15625
-59.26,1687677631.171875
-63.38,1687677631.1875
-63.68,1687677631.203125
-59.81,1687677631.21875
-52.28,1687677631.234375
-42.22,1687677631.25
-30.99,1687677631.265625
-19.74,1687677631.28125
-9.23,1687677631.296875
0.20,1687677631.3125
8.39,1687677631.328125
15.24,1687677631.34375
20.60,1687677631.359375
24.32,1687677631.375
26.40,1687677631.390625
27.07,1687677631.40625
26.76,1687677631.421875
26.06,1687677631.4375
25.52,1687677631.453125
25.51,1687677631.46875
26.11,1687677631.484375
27.05,1687677631.5
27.89,1687677631.515625
28.17,1687677631.53125
27.67,1687677631.546875
26.50,1687677631.5625
25.02,1687677631.578125
23.60,1687677631.59375
22.42,1687677631.609375
21.38,1687677631.625
20.10,1687677631.640625
18.18,1687677631.65625
15.36,1687677631.671875
11.60,1687677631.6875
7.10,1687677631.703125
2.14,1687677631.71875
-3.02,1687677631.734375
-8.12,1687677631.75
-12.96,1687677631.765625
-17.34,1687677631.78125
-21.07,1687677631.796875
-24.08,1687677631.8125
-26.47,1687677631.828125
-28.61,1687677631.84375
-31.05,1687677631.859375
-34.29,1687677631.875
-38.49,1687677631.890625
-43.26,1687677631.90625
-47.63,1687677631.921875
-50.30,1687677631.9375
-50.15,1687677631.953125
-46.64,1687677631.96875
-40.08,1687677631.984375
-31.47,1687677632.0
-22.12,1687677632.015625
-13.10,1687677632.03125
-5.03,1687677632.046875
1.95,1687677632.0625
7.99,1687677632.078125
13.15,1687677632.09375
17.35,1687677632.109375
20.39,1687677632.125
22.14,1687677632.140625
22.72,1687677632.15625
22.51,1687677632.171875
22.00,1687677632.1875
21.63,1687677632.203125
21.55,1687677632.21875
21.67,1687677632.234375
21.71,1687677632.25
21.38,1687677632.265625
20.55,1687677632.28125
19.23,1687677632.296875
17.61,1687677632.3125
15.85,1687677632.328125
14.11,1687677632.34375
12.41,1687677632.359375
10.68,1687677632.375
8.82,1687677632.390625
6.65,1687677632.40625
4.05,1687677632.421875
0.94,1687677632.4375
-2.62,1687677632.453125
-6.37,1687677632.46875
-9.96,1687677632.484375
-13.06,1687677632.5
-15.49,1687677632.515625
-17.36,1687677632.53125
-19.07,1687677632.546875
-21.14,1687677632.5625
-24.01,1687677632.578125
-27.88,1687677632.59375
-32.64,1687677632.609375
-37.96,1687677632.625
-43.24,1687677632.640625
-47.83,1687677632.65625
-51.01,1687677632.671875
-52.09,1687677632.6875
-50.61,1687677632.703125
-46.45,1687677632.71875
-39.94,1687677632.734375
-31.80,1687677632.75
-23.02,1687677632.765625
-14.52,1687677632.78125
-7.00,1687677632.796875
-0.85,1687677632.8125
3.84,1687677632.828125
7.16,1687677632.84375
9.30,1687677632.859375
10.44,1687677632.875
10.77,1687677632.890625
10.48,1687677632.90625
9.77,1687677632.921875
8.86,1687677632.9375
7.95,1687677632.953125
7.16,1687677632.96875
6.52,1687677632.984375
5.93,1687677633.0
5.20,1687677633.015625
4.20,1687677633.03125
2.90,1687677633.046875
1.40,1687677633.0625
-0.13,1687677633.078125
-1.69,1687677633.09375
-3.43,1687677633.109375
-5.75,1687677633.125
-9.02,1687677633.140625
-13.41,1687677633.15625
-18.66,1687677633.171875
-24.13,1687677633.1875
-29.04,1687677633.203125
-32.83,1687677633.21875
-35.39,1687677633.234375
-37.17,1687677633.25
-39.04,1687677633.265625
-41.92,1687677633.28125
-46.43,1687677633.296875
-52.76,1687677633.3125
-60.52,1687677633.328125
-68.92,1687677633.34375
-76.90,1687677633.359375
-83.37,1687677633.375
-87.35,1687677633.390625
-88.23,1687677633.40625
-85.88,1687677633.421875
-80.77,1687677633.4375
-73.80,1687677633.453125
-66.03,1687677633.46875
-58.33,1687677633.484375
-50.96,1687677633.5
-43.52,1687677633.515625
-35.08,1687677633.53125
-24.56,1687677633.546875
-11.24,1687677633.5625
4.94,1687677633.578125
23.28,1687677633.59375
42.49,1687677633.609375
61.07,1687677633.625
77.65,1687677633.640625
91.27,1687677633.65625
101.47,1687677633.671875
108.31,1687677633.6875
112.19,1687677633.703125
113.59,1687677633.71875
112.85,1687677633.734375
110.07,1687677633.75
105.22,1687677633.765625
98.36,1687677633.78125
89.94,1687677633.796875
80.77,1687677633.8125
71.80,1687677633.828125
63.73,1687677633.84375
56.68,1687677633.859375
50.20,1687677633.875
43.56,1687677633.890625
36.27,1687677633.90625
28.31,1687677633.921875
20.17,1687677633.9375
12.44,1687677633.953125
5.42,1687677633.96875
-1.07,1687677633.984375
-7.51,1687677634.0
-14.39,1687677634.015625
-21.84,1687677634.03125
-29.57,1687677634.046875
-37.04,1687677634.0625
-43.62,1687677634.078125
-48.85,1687677634.09375
-52.50,1687677634.109375
-54.57,1687677634.125
-55.22,1687677634.140625
-54.67,1687677634.15625
-53.16,1687677634.171875
-50.90,1687677634.1875
-48.06,1687677634.203125
-44.98,1687677634.21875
-42.25,1687677634.234375
-40.94,1687677634.25
-42.34,1687677634.265625
-47.48,1687677634.28125
-56.44,1687677634.296875
-67.85,1687677634.3125
-78.95,1687677634.328125
-86.32,1687677634.34375
-87.04,1687677634.359375
-79.56,1687677634.375
-64.14,1687677634.390625
-42.56,1687677634.40625
-17.35,1687677634.421875
9.06,1687677634.4375
34.95,1687677634.453125
59.47,1687677634.46875
82.50,1687677634.484375
104.40,1687677634.5
125.68,1687677634.515625
146.79,1687677634.53125
167.86,1687677634.546875
188.57,1687677634.5625
208.12,1687677634.578125
225.37,1687677634.59375
239.12,1687677634.609375
248.47,1687677634.625
252.92,1687677634.640625
252.58,1687677634.65625
248.08,1687677634.671875
240.29,1687677634.6875
230.00,1687677634.703125
217.77,1687677634.71875
203.96,1687677634.734375
188.96,1687677634.75
173.21,1687677634.765625
157.08,1687677634.78125
140.48,1687677634.796875
122.25,1687677634.8125
99.76,1687677634.828125
68.85,1687677634.84375
24.89,1687677634.859375
-35.47,1687677634.875
-111.92,1687677634.890625
-199.02,1687677634.90625
-286.42,1687677634.921875
-361.31,1687677634.9375
-412.43,1687677634.953125
-433.87,1687677634.96875
-427.12,1687677634.984375
-400.12,1687677635.0
-363.97,1687677635.015625
-329.02,1687677635.03125
-302.07,1687677635.046875
-285.89,1687677635.0625
-280.33,1687677635.078125
-284.02,1687677635.09375
-295.01,1687677635.109375
-310.24,1687677635.125
-324.86,1687677635.140625
-332.44,1687677635.15625
-326.37,1687677635.171875
-302.32,1687677635.1875
-260.21,1687677635.203125
-204.83,1687677635.21875
-144.53,1687677635.234375
-88.45,1687677635.25
-43.62,1687677635.265625
-12.95,1687677635.28125
5.00,1687677635.296875
14.73,1687677635.3125
21.61,1687677635.328125
29.72,1687677635.34375
40.64,1687677635.359375
53.56,1687677635.375
66.52,1687677635.390625
77.68,1687677635.40625
86.36,1687677635.421875
93.06,1687677635.4375
98.79,1687677635.453125
104.15,1687677635.46875
108.78,1687677635.484375
111.49,1687677635.5
110.88,1687677635.515625
106.12,1687677635.53125
97.43,1687677635.546875
86.06,1687677635.5625
73.88,1687677635.578125
62.85,1687677635.59375
54.56,1687677635.609375
49.93,1687677635.625
49.24,1687677635.640625
52.10,1687677635.65625
57.64,1687677635.671875
64.67,1687677635.6875
71.92,1687677635.703125
78.29,1687677635.71875
83.04,1687677635.734375
85.97,1687677635.75
87.28,1687677635.765625
87.45,1687677635.78125
87.01,1687677635.796875
86.34,1687677635.8125
85.66,1687677635.828125
85.01,1687677635.84375
84.47,1687677635.859375
84.15,1687677635.875
84.25,1687677635.890625
84.93,1687677635.90625
86.12,1687677635.921875
87.49,1687677635.9375
88.50,1687677635.953125
88.61,1687677635.96875
87.57,1687677635.984375
85.47,1687677636.0
82.75,1687677636.015625
79.92,1687677636.03125
77.24,1687677636.046875
74.50,1687677636.0625
71.23,1687677636.078125
66.91,1687677636.09375
61.38,1687677636.109375
55.06,1687677636.125
48.89,1687677636.140625
43.91,1687677636.15625
40.79,1687677636.171875
39.57,1687677636.1875
39.52,1687677636.203125
39.48,1687677636.21875
38.18,1687677636.234375
34.51,1687677636.25
27.70,1687677636.265625
17.31,1687677636.28125
3.35,1687677636.296875
-13.65,1687677636.3125
-32.56,1687677636.328125
-51.75,1687677636.34375
-69.46,1687677636.359375
-84.18,1687677636.375
-95.21,1687677636.390625
-102.62,1687677636.40625
-107.07,1687677636.421875
-109.23,1687677636.4375
-109.30,1687677636.453125
-106.89,1687677636.46875
-101.27,1687677636.484375
-91.94,1687677636.5
-79.05,1687677636.515625
-63.66,1687677636.53125
-47.41,1687677636.546875
-32.16,1687677636.5625
-19.39,1687677636.578125
-9.84,1687677636.59375
-3.41,1687677636.609375
0.62,1687677636.625
3.23,1687677636.640625
5.36,1687677636.65625
7.62,1687677636.671875
10.37,1687677636.6875
13.73,1687677636.703125
17.75,1687677636.71875
22.42,1687677636.734375
27.59,1687677636.75
33.01,1687677636.765625
38.27,1687677636.78125
42.92,1687677636.796875
46.67,1687677636.8125
49.49,1687677636.828125
51.59,1687677636.84375
53.26,1687677636.859375
54.66,1687677636.875
55.78,1687677636.890625
56.41,1687677636.90625
56.20,1687677636.921875
54.72,1687677636.9375
51.46,1687677636.953125
45.87,1687677636.96875
37.50,1687677636.984375
26.34,1687677637.0
12.91,1687677637.015625
-1.70,1687677637.03125
-16.27,1687677637.046875
-29.82,1687677637.0625
-41.85,1687677637.078125
-52.24,1687677637.09375
-60.86,1687677637.109375
-67.27,1687677637.125
-70.69,1687677637.140625
-70.43,1687677637.15625
-66.37,1687677637.171875
-59.31,1687677637.1875
-50.81,1687677637.203125
-42.62,1687677637.21875
-36.01,1687677637.234375
-31.35,1687677637.25
-28.25,1687677637.265625
-25.88,1687677637.28125
-23.53,1687677637.296875
-20.84,1687677637.3125
-17.79,1687677637.328125
-14.53,1687677637.34375
-11.05,1687677637.359375
-7.11,1687677637.375
-2.34,1687677637.390625
3.57,1687677637.40625
10.76,1687677637.421875
19.02,1687677637.4375
27.80,1687677637.453125
36.33,1687677637.46875
43.66,1687677637.484375
48.92,1687677637.5
51.44,1687677637.515625
50.99,1687677637.53125
47.79,1687677637.546875
42.46,1687677637.5625
35.81,1687677637.578125
28.55,1687677637.59375
21.12,1687677637.609375
13.63,1687677637.625
6.04,1687677637.640625
-1.71,1687677637.65625
-9.46,1687677637.671875
-16.84,1687677637.6875
-23.26,1687677637.703125
-28.12,1687677637.71875
-30.91,1687677637.734375
-31.27,1687677637.75
-29.10,1687677637.765625
-24.52,1687677637.78125
-17.83,1687677637.796875
-9.49,1687677637.8125
-0.00,1687677637.828125
10.05,1687677637.84375
20.04,1687677637.859375
29.29,1687677637.875
37.16,1687677637.890625
43.13,1687677637.90625
46.99,1687677637.921875
48.91,1687677637.9375
49.38,1687677637.953125
49.04,1687677637.96875
48.41,1687677637.984375
47.81,1687677638.0
47.26,1687677638.015625
46.64,1687677638.03125
45.71,1687677638.046875
44.27,1687677638.0625
42.23,1687677638.078125
39.61,1687677638.09375
36.58,1687677638.109375
33.34,1687677638.125
30.06,1687677638.140625
26.78,1687677638.15625
23.35,1687677638.171875
19.50,1687677638.1875
15.04,1687677638.203125
10.01,1687677638.21875
4.76,1687677638.234375
-0.11,1687677638.25
-4.02,1687677638.265625
-6.71,1687677638.28125
-8.39,1687677638.296875
-9.68,1687677638.3125
-11.44,1687677638.328125
-14.37,1687677638.34375
-18.70,1687677638.359375
-24.06,1687677638.375
-29.53,1687677638.390625
-33.93,1687677638.40625
-36.22,1687677638.421875
-35.82,1687677638.4375
-32.83,1687677638.453125
-27.86,1687677638.46875
-21.81,1687677638.484375
-15.49,1687677638.5
-9.51,1687677638.515625
-4.14,1687677638.53125
0.50,1687677638.546875
4.34,1687677638.5625
7.29,1687677638.578125
9.26,1687677638.59375
10.25,1687677638.609375
10.42,1687677638.625
10.03,1687677638.640625
9.44,1687677638.65625
8.86,1687677638.671875
8.44,1687677638.6875
8.09,1687677638.703125
7.66,1687677638.71875
6.98,1687677638.734375
5.98,1687677638.75
4.73,1687677638.765625
3.47,1687677638.78125
2.45,1687677638.796875
1.89,1687677638.8125
1.79,1687677638.828125
1.89,1687677638.84375
1.80,1687677638.859375
1.16,1687677638.875
-0.17,1687677638.890625
-2.08,1687677638.90625
-4.26,1687677638.921875
-6.36,1687677638.9375
-8.15,1687677638.953125
-9.63,1687677638.96875
-10.96,1687677638.984375
-12.41,1687677639.0
-14.21,1687677639.015625
-16.49,1687677639.03125
-19.23,1687677639.046875
-22.25,1687677639.0625
-25.22,1687677639.078125
-27.69,1687677639.09375
-29.19,1687677639.109375
-29.30,1687677639.125
-27.72,1687677639.140625
-24.44,1687677639.15625
-19.73,1687677639.171875
-14.10,1687677639.1875
-8.21,1687677639.203125
-2.76,1687677639.21875
1.79,1687677639.234375
5.20,1687677639.25
7.54,1687677639.265625
9.06,1687677639.28125
10.02,1687677639.296875
10.61,1687677639.3125
10.91,1687677639.328125
10.97,1687677639.34375
10.87,1687677639.359375
10.69,1687677639.375
10.50,1687677639.390625
10.25,1687677639.40625
9.85,1687677639.421875
9.19,1687677639.4375
8.31,1687677639.453125
7.35,1687677639.46875
6.54,1687677639.484375
6.06,1687677639.5
5.87,1687677639.515625
5.78,1687677639.53125
5.41,1687677639.546875
4.47,1687677639.5625
2.78,1687677639.578125
0.46,1687677639.59375
-2.23,1687677639.609375
-4.93,1687677639.625
-7.34,1687677639.640625
-9.35,1687677639.65625
-11.03,1687677639.671875
-12.64,1687677639.6875
-14.46,1687677639.703125
-16.81,1687677639.71875
-19.85,1687677639.734375
-23.54,1687677639.75
-27.59,1687677639.765625
-31.44,1687677639.78125
-34.33,1687677639.796875
-35.45,1687677639.8125
-34.18,1687677639.828125
-30.33,1687677639.84375
-24.23,1687677639.859375
-16.72,1687677639.875
-8.88,1687677639.890625
-1.81,1687677639.90625
3.75,1687677639.921875
7.50,1687677639.9375
9.56,1687677639.953125
10.34,1687677639.96875
10.31,1687677639.984375
9.90,1687677640.0
9.35,1687677640.015625
8.77,1687677640.03125
8.15,1687677640.046875
7.49,1687677640.0625
6.86,1687677640.078125
6.36,1687677640.09375
6.07,1687677640.109375
5.95,1687677640.125
5.85,1687677640.140625
5.57,1687677640.15625
5.00,1687677640.171875
4.26,1687677640.1875
3.61,1687677640.203125
3.26,1687677640.21875
3.18,1687677640.234375
3.02,1687677640.25
2.29,1687677640.265625
0.57,1687677640.28125
-2.18,1687677640.296875
-5.62,1687677640.3125
-9.16,1687677640.328125
-12.27,1687677640.34375
-14.74,1687677640.359375
-16.71,1687677640.375
-18.63,1687677640.390625
-21.01,1687677640.40625
-24.32,1687677640.421875
-28.74,1687677640.4375
-34.18,1687677640.453125
-40.12,1687677640.46875
-45.76,1687677640.484375
-50.10,1687677640.5
-52.20,1687677640.515625
-51.39,1687677640.53125
-47.53,1687677640.546875
-41.01,1687677640.5625
-32.64,1687677640.578125
-23.43,1687677640.59375
-14.28,1687677640.609375
-5.87,1687677640.625
1.49,1687677640.640625
7.71,1687677640.65625
12.81,1687677640.671875
16.77,1687677640.6875
19.43,1687677640.703125
20.53,1687677640.71875
19.89,1687677640.734375
17.57,1687677640.75
13.92,1687677640.765625
9.70,1687677640.78125
5.81,1687677640.796875
3.08,1687677640.8125
2.10,1687677640.828125
3.04,1687677640.84375
5.76,1687677640.859375
9.86,1687677640.875
14.83,1687677640.890625
20.05,1687677640.90625
24.78,1687677640.921875
28.21,1687677640.9375
29.48,1687677640.953125
27.97,1687677640.96875
23.48,1687677640.984375
16.30,1687677641.0
7.24,1687677641.015625
-2.66,1687677641.03125
-12.33,1687677641.046875
-20.95,1687677641.0625
-27.99,1687677641.078125
-33.29,1687677641.09375
-37.00,1687677641.109375
-39.53,1687677641.125
-41.47,1687677641.140625
-43.41,1687677641.15625
-45.81,1687677641.171875
-48.72,1687677641.1875
-51.76,1687677641.203125
-54.08,1687677641.21875
-54.74,1687677641.234375
-52.98,1687677641.25
-48.57,1687677641.265625
-41.83,1687677641.28125
-33.53,1687677641.296875
-24.55,1687677641.3125
-15.65,1687677641.328125
-7.33,1687677641.34375
0.19,1687677641.359375
6.76,1687677641.375
12.30,1687677641.390625
16.71,1687677641.40625
19.97,1687677641.421875
22.16,1687677641.4375
23.54,1687677641.453125
24.40,1687677641.46875
25.00,1687677641.484375
25.53,1687677641.5
26.06,1687677641.515625
26.63,1687677641.53125
27.22,1687677641.546875
27.84,1687677641.5625
28.48,1687677641.578125
29.12,1687677641.59375
29.72,1687677641.609375
30.22,1687677641.625
30.49,1687677641.640625
30.32,1687677641.65625
29.46,1687677641.671875
27.64,1687677641.6875
24.68,1687677641.703125
20.50,1687677641.71875
15.28,1687677641.734375
9.38,1687677641.75
3.35,1687677641.765625
-2.29,1687677641.78125
-7.22,1687677641.796875
-11.39,1687677641.8125
-15.16,1687677641.828125
-19.18,1687677641.84375
-24.18,1687677641.859375
-30.70,1687677641.875
-38.71,1687677641.890625
-47.50,1687677641.90625
-55.75,1687677641.921875
-61.85,1687677641.9375
-64.34,1687677641.953125
-62.40,1687677641.96875
-55.99,1687677641.984375
-45.95,1687677642.0
-33.62,1687677642.015625
-20.55,1687677642.03125
-8.07,1687677642.046875
2.89,1687677642.0625
11.91,1687677642.078125
18.94,1687677642.09375
24.20,1687677642.109375
28.00,1687677642.125
30.67,1687677642.140625
32.44,1687677642.15625
33.53,1687677642.171875
34.14,1687677642.1875
34.48,1687677642.203125
34.77,1687677642.21875
35.09,1687677642.234375
35.40,1687677642.25
35.51,1687677642.265625
35.20,1687677642.28125
34.36,1687677642.296875
33.02,1687677642.3125
31.36,1687677642.328125
29.58,1687677642.34375
27.85,1687677642.359375
26.13,1687677642.375
24.24,1687677642.390625
21.92,1687677642.40625
18.98,1687677642.421875
15.39,1687677642.4375
11.36,1687677642.453125
7.21,1687677642.46875
3.30,1687677642.484375
-0.20,1687677642.5
-3.37,1687677642.515625
-6.49,1687677642.53125
-9.99,1687677642.546875
-14.24,1687677642.5625
-19.46,1687677642.578125
-25.58,1687677642.59375
-32.26,1687677642.609375
-38.81,1687677642.625
-44.24,1687677642.640625
-47.40,1687677642.65625
-47.27,1687677642.671875
-43.24,1687677642.6875
-35.48,1687677642.703125
-24.86,1687677642.71875
-12.75,1687677642.734375
-0.62,1687677642.75
10.36,1687677642.765625
19.55,1687677642.78125
26.69,1687677642.796875
31.88,1687677642.8125
35.28,1687677642.828125
37.18,1687677642.84375
37.97,1687677642.859375
38.10,1687677642.875
38.07,1687677642.890625
38.26,1687677642.90625
38.80,1687677642.921875
39.66,1687677642.9375
40.64,1687677642.953125
41.54,1687677642.96875
42.19,1687677642.984375
42.54,1687677643.0
42.55,1687677643.015625
42.15,1687677643.03125
41.28,1687677643.046875
39.81,1687677643.0625
37.63,1687677643.078125
34.61,1687677643.09375
30.73,1687677643.109375
26.05,1687677643.125
20.82,1687677643.140625
15.45,1687677643.15625
10.33,1687677643.171875
5.73,1687677643.1875
1.55,1687677643.203125
-2.55,1687677643.21875
-7.09,1687677643.234375
-12.46,1687677643.25
-18.65,1687677643.265625
-25.15,1687677643.28125
-30.96,1687677643.296875
-34.88,1687677643.3125
-35.82,1687677643.328125
-33.17,1687677643.34375
-26.96,1687677643.359375
-17.87,1687677643.375
-6.98,1687677643.390625
4.56,1687677643.40625
15.88,1687677643.421875
26.46,1687677643.4375
36.17,1687677643.453125
44.89,1687677643.46875
52.41,1687677643.484375
58.25,1687677643.5
61.93,1687677643.515625
63.26,1687677643.53125
62.63,1687677643.546875
61.05,1687677643.5625
59.88,1687677643.578125
60.28,1687677643.59375
62.69,1687677643.609375
66.70,1687677643.625
71.20,1687677643.640625
74.92,1687677643.65625
76.97,1687677643.671875
77.24,1687677643.6875
76.42,1687677643.703125
75.72,1687677643.71875
76.48,1687677643.734375
79.64,1687677643.75
85.18,1687677643.765625
91.78,1687677643.78125
96.70,1687677643.796875
96.02,1687677643.8125
85.61,1687677643.828125
62.82,1687677643.84375
27.95,1687677643.859375
-14.76,1687677643.875
-57.95,1687677643.890625
-93.15,1687677643.90625
-113.50,1687677643.921875
-115.73,1687677643.9375
-100.65,1687677643.953125
-72.34,1687677643.96875
-36.41,1687677643.984375
1.46,1687677644.0
36.29,1687677644.015625
64.17,1687677644.03125
82.73,1687677644.046875
91.80,1687677644.0625
93.90,1687677644.078125
93.82,1687677644.09375
97.05,1687677644.109375
107.89,1687677644.125
128.03,1687677644.140625
156.03,1687677644.15625
188.05,1687677644.171875
219.46,1687677644.1875
246.21,1687677644.203125
265.40,1687677644.21875
275.25,1687677644.234375
274.61,1687677644.25
263.02,1687677644.265625
241.22,1687677644.28125
210.96,1687677644.296875
174.62,1687677644.3125
134.62,1687677644.328125
93.16,1687677644.34375
51.99,1687677644.359375
12.48,1687677644.375
-24.50,1687677644.390625
-58.23,1687677644.40625
-87.73,1687677644.421875
-112.33,1687677644.4375
-131.94,1687677644.453125
-147.20,1687677644.46875
-158.91,1687677644.484375
-167.86,1687677644.5
-172.97,1687677644.515625
-173.07,1687677644.53125
-170.20,1687677644.546875
-167.07,1687677644.5625
-166.61,1687677644.578125
-170.50,1687677644.59375
-180.58,1687677644.609375
-197.84,1687677644.625
-222.03,1687677644.640625
-251.78,1687677644.65625
-285.24,1687677644.671875
-320.61,1687677644.6875
-356.26,1687677644.703125
-391.26,1687677644.71875
-425.45,1687677644.734375
-459.43,1687677644.75
-494.05,1687677644.765625
-530.10,1687677644.78125
-567.55,1687677644.796875
-604.67,1687677644.8125
-637.05,1687677644.828125
-657.36,1687677644.84375
-657.23,1687677644.859375
-630.10,1687677644.875
-573.98,1687677644.890625
-492.19,1687677644.90625
-392.43,1687677644.921875
-283.97,1687677644.9375
-174.79,1687677644.953125
-69.75,1687677644.96875
29.44,1687677644.984375
122.60,1687677645.0
209.48,1687677645.015625
289.05,1687677645.03125
360.54,1687677645.046875
424.38,1687677645.0625
482.88,1687677645.078125
539.41,1687677645.09375
596.91,1687677645.109375
656.33,1687677645.125
715.87,1687677645.140625
771.19,1687677645.15625
816.58,1687677645.171875
846.89,1687677645.1875
858.40,1687677645.203125
849.69,1687677645.21875
821.69,1687677645.234375
777.18,1687677645.25
720.01,1687677645.265625
654.14,1687677645.28125
582.88,1687677645.296875
508.08,1687677645.3125
431.51,1687677645.328125
354.49,1687677645.34375
278.82,1687677645.359375
206.87,1687677645.375
140.85,1687677645.390625
81.93,1687677645.40625
29.53,1687677645.421875
-18.54,1687677645.4375
-65.80,1687677645.453125
-113.64,1687677645.46875
-162.30,1687677645.484375
-209.77,1687677645.5
-253.00,1687677645.515625
-289.25,1687677645.53125
-317.66,1687677645.546875
-339.66,1687677645.5625
-358.38,1687677645.578125
-378.63,1687677645.59375
-402.50,1687677645.609375
-431.85,1687677645.625
-466.64,1687677645.640625
-504.87,1687677645.65625
-542.49,1687677645.671875
-573.39,1687677645.6875
-589.96,1687677645.703125
-584.98,1687677645.71875
-556.12,1687677645.734375
-502.74,1687677645.75
-429.70,1687677645.765625
-343.61,1687677645.78125
-250.38,1687677645.796875
-153.34,1687677645.8125
-52.97,1687677645.828125
51.42,1687677645.84375
165.31,1687677645.859375
269.51,1687677645.875
354.70,1687677645.890625
410.10,1687677645.90625
430.21,1687677645.921875
416.89,1687677645.9375
378.25,1687677645.953125
325.80,1687677645.96875
270.54,1687677645.984375
219.83,1687677646.0
171.17,1687677646.015625
121.60,1687677646.03125
68.20,1687677646.046875
13.11,1687677646.0625
-37.78,1687677646.078125
-78.49,1687677646.09375
-105.92,1687677646.109375
-120.82,1687677646.125
-127.54,1687677646.140625
-137.76,1687677646.15625
-160.04,1687677646.171875
-198.84,1687677646.1875
-252.05,1687677646.203125
-314.60,1687677646.21875
-382.91,1687677646.234375
-455.84,1687677646.25
-532.73,1687677646.265625
-580.17,1687677646.28125
-570.58,1687677646.296875
-494.66,1687677646.3125
-370.42,1687677646.328125
-227.50,1687677646.34375
-90.64,1687677646.359375
25.56,1687677646.375
115.87,1687677646.390625
182.02,1687677646.40625
229.61,1687677646.421875
260.18,1687677646.4375
274.98,1687677646.453125
276.19,1687677646.46875
268.94,1687677646.484375
261.66,1687677646.5
261.84,1687677646.515625
273.54,1687677646.53125
295.83,1687677646.546875
321.90,1687677646.5625
337.53,1687677646.578125
329.58,1687677646.59375
291.82,1687677646.609375
228.43,1687677646.625
151.00,1687677646.640625
72.45,1687677646.65625
1.65,1687677646.671875
-54.99,1687677646.6875
-97.18,1687677646.703125
-131.78,1687677646.71875
-167.59,1687677646.734375
-211.23,1687677646.75
-264.51,1687677646.765625
-324.60,1687677646.78125
-385.53,1687677646.796875
-439.18,1687677646.8125
-476.78,1687677646.828125
-491.77,1687677646.84375
-482.71,1687677646.859375
-453.39,1687677646.875
-411.50,1687677646.890625
-366.74,1687677646.90625
-328.42,1687677646.921875
-303.37,1687677646.9375
-294.18,1687677646.953125
-298.44,1687677646.96875
-310.11,1687677646.984375
-321.68,1687677647.0
-326.14,1687677647.015625
-318.88,1687677647.03125
-298.71,1687677647.046875
-267.58,1687677647.0625
-229.36,1687677647.078125
-187.93,1687677647.09375
-145.91,1687677647.109375
-104.81,1687677647.125
-65.72,1687677647.140625
-29.86,1687677647.15625
1.62,1687677647.171875
28.23,1687677647.1875
50.88,1687677647.203125
71.79,1687677647.21875
93.58,1687677647.234375
118.03,1687677647.25
145.16,1687677647.265625
173.29,1687677647.28125
199.94,1687677647.296875
223.17,1687677647.3125
242.48,1687677647.328125
259.08,1687677647.34375
275.35,1687677647.359375
293.79,1687677647.375
316.16,1687677647.390625
343.10,1687677647.40625
374.23,1687677647.421875
408.55,1687677647.4375
444.58,1687677647.453125
480.25,1687677647.46875
512.88,1687677647.484375
539.53,1687677647.5
557.87,1687677647.515625
567.26,1687677647.53125
569.17,1687677647.546875
566.72,1687677647.5625
563.44,1687677647.578125
561.70,1687677647.59375
561.85,1687677647.609375
562.20,1687677647.625
559.83,1687677647.640625
551.64,1687677647.65625
535.14,1687677647.671875
508.88,1687677647.6875
472.55,1687677647.703125
427.06,1687677647.71875
374.53,1687677647.734375
317.98,1687677647.75
260.78,1687677647.765625
205.71,1687677647.78125
154.25,1687677647.796875
106.33,1687677647.8125
60.50,1687677647.828125
14.50,1687677647.84375
-33.93,1687677647.859375
-86.08,1687677647.875
-140.99,1687677647.890625
-194.57,1687677647.90625
-239.97,1687677647.921875
-269.61,1687677647.9375
-278.60,1687677647.953125
-267.82,1687677647.96875
-244.80,1687677647.984375
-221.39,1687677648.0
-208.73,1687677648.015625
-212.01,1687677648.03125
-227.79,1687677648.046875
-245.41,1687677648.0625
-251.60,1687677648.078125
-235.94,1687677648.09375
-194.41,1687677648.109375
-129.96,1687677648.125
-50.56,1687677648.140625
33.42,1687677648.15625
111.58,1687677648.171875
174.88,1687677648.1875
216.66,1687677648.203125
233.45,1687677648.21875
225.53,1687677648.234375
196.57,1687677648.25
152.59,1687677648.265625
100.06,1687677648.28125
44.50,1687677648.296875
-10.30,1687677648.3125
-62.10,1687677648.328125
-109.90,1687677648.34375
-153.46,1687677648.359375
-193.51,1687677648.375
-231.79,1687677648.390625
-270.67,1687677648.40625
-312.43,1687677648.421875
-358.76,1687677648.4375
-410.48,1687677648.453125
-467.68,1687677648.46875
-529.37,1687677648.484375
-592.86,1687677648.5
-653.19,1687677648.515625
-703.51,1687677648.53125
-736.50,1687677648.546875
-746.85,1687677648.5625
-733.33,1687677648.578125
-699.29,1687677648.59375
-651.29,1687677648.609375
-596.51,1687677648.625
-540.45,1687677648.640625
-485.94,1687677648.65625
-433.74,1687677648.671875
-383.85,1687677648.6875
-336.43,1687677648.703125
-291.85,1687677648.71875
-250.06,1687677648.734375
-210.11,1687677648.75
-170.38,1687677648.765625
-129.51,1687677648.78125
-87.42,1687677648.796875
-45.54,1687677648.8125
-6.07,1687677648.828125
28.87,1687677648.84375
58.57,1687677648.859375
83.94,1687677648.875
107.04,1687677648.890625
130.10,1687677648.90625
154.40,1687677648.921875
179.94,1687677648.9375
205.59,1687677648.953125
230.14,1687677648.96875
253.03,1687677648.984375
274.93,1687677649.0
297.57,1687677649.015625
323.22,1687677649.03125
353.97,1687677649.046875
391.03,1687677649.0625
434.01,1687677649.078125
480.47,1687677649.09375
525.77,1687677649.109375
563.78,1687677649.125
588.54,1687677649.140625
596.02,1687677649.15625
585.52,1687677649.171875
559.71,1687677649.1875
523.05,1687677649.203125
479.65,1687677649.21875
431.61,1687677649.234375
378.69,1687677649.25
319.48,1687677649.265625
253.61,1687677649.28125
183.34,1687677649.296875
113.96,1687677649.3125
52.21,1687677649.328125
3.57,1687677649.34375
-30.33,1687677649.359375
-52.76,1687677649.375
-70.67,1687677649.390625
-92.04,1687677649.40625
-122.68,1687677649.421875
-164.62,1687677649.4375
-216.28,1687677649.453125
-273.86,1687677649.46875
-333.13,1687677649.484375
-390.54,1687677649.5
-443.49,1687677649.515625
-490.03,1687677649.53125
-528.54,1687677649.546875
-557.58,1687677649.5625
-576.07,1687677649.578125
-583.16,1687677649.59375
-578.36,1687677649.609375
-561.67,1687677649.625
-533.76,1687677649.640625
-496.50,1687677649.65625
-452.80,1687677649.671875
-405.90,1687677649.6875
-358.25,1687677649.703125
-310.84,1687677649.71875
-263.37,1687677649.734375
-215.20,1687677649.75
-166.50,1687677649.765625
-118.39,1687677649.78125
-72.42,1687677649.796875
-29.36,1687677649.8125
11.32,1687677649.828125
51.21,1687677649.84375
91.93,1687677649.859375
134.39,1687677649.875
178.29,1687677649.890625
222.28,1687677649.90625
264.97,1687677649.921875
305.60,1687677649.9375
344.34,1687677649.953125
382.32,1687677649.96875
421.07,1687677649.984375
461.84,1687677650.0
505.19,1687677650.015625
550.54,1687677650.03125
596.17,1687677650.046875
639.41,1687677650.0625
677.00,1687677650.078125
705.88,1687677650.09375
723.93,1687677650.109375
730.40,1687677650.125
725.80,1687677650.140625
711.14,1687677650.15625
687.09,1687677650.171875
653.40,1687677650.1875
609.38,1687677650.203125
554.67,1687677650.21875
490.19,1687677650.234375
418.45,1687677650.25
342.81,1687677650.265625
266.44,1687677650.28125
191.18,1687677650.296875
117.29,1687677650.3125
43.75,1687677650.328125
-30.69,1687677650.34375
-106.47,1687677650.359375
-182.38,1687677650.375
-255.23,1687677650.390625
-320.47,1687677650.40625
-373.27,1687677650.421875
-410.17,1687677650.4375
-430.46,1687677650.453125
-436.57,1687677650.46875
-433.05,1687677650.484375
-424.47,1687677650.5
-413.45,1687677650.515625
-399.81,1687677650.53125
-381.47,1687677650.546875
-356.36,1687677650.5625
-324.12,1687677650.578125
-286.78,1687677650.59375
-247.91,1687677650.609375
-211.03,1687677650.625
-178.05,1687677650.640625
-148.50,1687677650.65625
-119.96,1687677650.671875
-89.50,1687677650.6875
-55.32,1687677650.703125
-18.13,1687677650.71875
18.71,1687677650.734375
50.63,1687677650.75
73.87,1687677650.765625
87.56,1687677650.78125
93.79,1687677650.796875
96.29,1687677650.8125
98.04,1687677650.828125
100.00,1687677650.84375
101.61,1687677650.859375
102.63,1687677650.875
104.57,1687677650.890625
110.23,1687677650.90625
121.35,1687677650.921875
136.21,1687677650.9375
149.60,1687677650.953125
155.63,1687677650.96875
151.81,1687677650.984375
141.45,1687677651.0
132.41,1687677651.015625
132.78,1687677651.03125
146.18,1687677651.046875
169.74,1687677651.0625
196.04,1687677651.078125
217.52,1687677651.09375
230.23,1687677651.109375
234.81,1687677651.125
234.32,1687677651.140625
230.97,1687677651.15625
224.13,1687677651.171875
210.73,1687677651.1875
187.68,1687677651.203125
154.19,1687677651.21875
112.76,1687677651.234375
67.91,1687677651.25
23.87,1687677651.265625
-17.41,1687677651.28125
-56.73,1687677651.296875
-96.27,1687677651.3125
-137.55,1687677651.328125
-179.81,1687677651.34375
-219.78,1687677651.359375
-252.97,1687677651.375
-275.76,1687677651.390625
-287.07,1687677651.40625
-288.77,1687677651.421875
-284.58,1687677651.4375
-278.33,1687677651.453125
-272.28,1687677651.46875
-266.64,1687677651.484375
-260.30,1687677651.5
-252.22,1687677651.515625
-242.46,1687677651.53125
-231.97,1687677651.546875
-221.46,1687677651.5625
-210.05,1687677651.578125
-195.02,1687677651.59375
-172.90,1687677651.609375
-141.54,1687677651.625
-101.90,1687677651.640625
-58.37,1687677651.65625
-17.65,1687677651.671875
13.50,1687677651.6875
30.06,1687677651.703125
29.72,1687677651.71875
12.82,1687677651.734375
-18.17,1687677651.75
-59.08,1687677651.765625
-104.37,1687677651.78125
-147.59,1687677651.796875
-182.57,1687677651.8125
-205.05,1687677651.828125
-214.02,1687677651.84375
-212.11,1687677651.859375
-204.43,1687677651.875
-196.61,1687677651.890625
-192.63,1687677651.90625
-193.57,1687677651.921875
-197.54,1687677651.9375
-200.81,1687677651.953125
-199.41,1687677651.96875
-190.60,1687677651.984375
-173.65,1687677652.0
-149.54,1687677652.015625
-119.99,1687677652.03125
-86.00,1687677652.046875
-46.94,1687677652.0625
-0.68,1687677652.078125
54.73,1687677652.09375
118.59,1687677652.109375
185.75,1687677652.125
246.54,1687677652.140625
289.10,1687677652.15625
303.11,1687677652.171875
283.65,1687677652.1875
233.43,1687677652.203125
162.43,1687677652.21875
85.09,1687677652.234375
16.62,1687677652.25
-30.89,1687677652.265625
-51.10,1687677652.28125
-44.41,1687677652.296875
-17.39,1687677652.3125
19.79,1687677652.328125
56.45,1687677652.34375
84.79,1687677652.359375
101.82,1687677652.375
109.31,1687677652.390625
111.68,1687677652.40625
113.13,1687677652.421875
115.37,1687677652.4375
117.18,1687677652.453125
115.88,1687677652.46875
109.45,1687677652.484375
98.39,1687677652.5
85.73,1687677652.515625
75.53,1687677652.53125
70.81,1687677652.546875
72.26,1687677652.5625
78.49,1687677652.578125
87.51,1687677652.59375
98.25,1687677652.609375
111.09,1687677652.625
127.09,1687677652.640625
146.37,1687677652.65625
166.70,1687677652.671875
183.52,1687677652.6875
191.55,1687677652.703125
187.35,1687677652.71875
171.28,1687677652.734375
147.71,1687677652.75
123.29,1687677652.765625
103.96,1687677652.78125
92.65,1687677652.796875
88.43,1687677652.8125
88.09,1687677652.828125
88.40,1687677652.84375
88.09,1687677652.859375
88.10,1687677652.875
90.43,1687677652.890625
95.83,1687677652.90625
102.22,1687677652.921875
104.83,1687677652.9375
97.59,1687677652.953125
75.26,1687677652.96875
35.04,1687677652.984375
-22.52,1687677653.0
-93.08,1687677653.015625
-168.44,1687677653.03125
-237.14,1687677653.046875
-286.40,1687677653.0625
-305.86,1687677653.078125
-291.91,1687677653.09375
-250.37,1687677653.109375
-195.47,1687677653.125
-145.00,1687677653.140625
-113.48,1687677653.15625
-107.05,1687677653.171875
-122.39,1687677653.1875
-150.10,1687677653.203125
-180.27,1687677653.21875
-206.84,1687677653.234375
-228.97,1687677653.25
-249.48,1687677653.265625
-271.99,1687677653.28125
-298.76,1687677653.296875
-330.10,1687677653.3125
-364.68,1687677653.328125
-399.87,1687677653.34375
-431.62,1687677653.359375
-454.56,1687677653.375
-463.08,1687677653.390625
-453.15,1687677653.40625
-424.13,1687677653.421875
-378.94,1687677653.4375
-323.39,1687677653.453125
-264.19,1687677653.46875
-207.17,1687677653.484375
-156.16,1687677653.5
-112.52,1687677653.515625
-76.04,1687677653.53125
-45.52,1687677653.546875
-19.10,1687677653.5625
5.40,1687677653.578125
29.94,1687677653.59375
55.45,1687677653.609375
81.25,1687677653.625
105.32,1687677653.640625
126.34,1687677653.65625
142.88,1687677653.671875
153.61,1687677653.6875
157.71,1687677653.703125
155.48,1687677653.71875
148.64,1687677653.734375
140.07,1687677653.75
132.58,1687677653.765625
128.50,1687677653.78125
131.19,1687677653.796875
141.51,1687677653.8125
157.72,1687677653.828125
176.44,1687677653.84375
194.98,1687677653.859375
212.88,1687677653.875
231.45,1687677653.890625
251.54,1687677653.90625
273.50,1687677653.921875
300.21,1687677653.9375
332.36,1687677653.953125
368.07,1687677653.96875
403.56,1687677653.984375
435.23,1687677654.0
461.29,1687677654.015625
481.68,1687677654.03125
496.01,1687677654.046875
505.23,1687677654.0625
515.72,1687677654.078125
532.43,1687677654.09375
557.15,1687677654.109375
587.53,1687677654.125
618.77,1687677654.140625
645.91,1687677654.15625
664.65,1687677654.171875
670.72,1687677654.1875
628.42,1687677654.203125
520.72,1687677654.21875
355.02,1687677654.234375
162.09,1687677654.25
-22.39,1687677654.265625
-175.82,1687677654.28125
-292.38,1687677654.296875
-370.18,1687677654.3125
-423.00,1687677654.328125
-460.10,1687677654.34375
-480.93,1687677654.359375
-484.43,1687677654.375
-472.69,1687677654.390625
-451.61,1687677654.40625
-428.88,1687677654.421875
-408.99,1687677654.4375
-393.09,1687677654.453125
-381.75,1687677654.46875
-374.16,1687677654.484375
-366.28,1687677654.5
-355.56,1687677654.515625
-340.94,1687677654.53125
-322.56,1687677654.546875
-300.69,1687677654.5625
-275.12,1687677654.578125
-246.25,1687677654.59375
-216.44,1687677654.609375
-187.78,1687677654.625
-159.46,1687677654.640625
-130.38,1687677654.65625
-99.95,1687677654.671875
-69.10,1687677654.6875
-40.17,1687677654.703125
-15.77,1687677654.71875
2.00,1687677654.734375
11.87,1687677654.75
15.09,1687677654.765625
15.62,1687677654.78125
17.42,1687677654.796875
22.90,1687677654.8125
31.99,1687677654.828125
42.62,1687677654.84375
52.22,1687677654.859375
58.83,1687677654.875
61.57,1687677654.890625
61.23,1687677654.90625
59.69,1687677654.921875
58.43,1687677654.9375
57.66,1687677654.953125
56.33,1687677654.96875
52.71,1687677654.984375
45.51,1687677655.0
34.49,1687677655.015625
20.37,1687677655.03125
4.57,1687677655.046875
-11.51,1687677655.0625
-26.86,1687677655.078125
-40.78,1687677655.09375
-52.56,1687677655.109375
-61.26,1687677655.125
-65.81,1687677655.140625
-65.45,1687677655.15625
-60.18,1687677655.171875
-50.97,1687677655.1875
-39.45,1687677655.203125
-27.39,1687677655.21875
-16.12,1687677655.234375
-6.28,1687677655.25
1.98,1687677655.265625
8.72,1687677655.28125
13.93,1687677655.296875
17.54,1687677655.3125
19.73,1687677655.328125
20.96,1687677655.34375
22.03,1687677655.359375
23.66,1687677655.375
26.16,1687677655.390625
29.26,1687677655.40625
32.26,1687677655.421875
34.47,1687677655.4375
35.61,1687677655.453125
36.10,1687677655.46875
36.90,1687677655.484375
39.06,1687677655.5
43.13,1687677655.515625
48.75,1687677655.53125
54.50,1687677655.546875
58.16,1687677655.5625
57.30,1687677655.578125
50.25,1687677655.59375
36.92,1687677655.609375
19.21,1687677655.625
0.72,1687677655.640625
-14.35,1687677655.65625
-22.59,1687677655.671875
-22.47,1687677655.6875
-14.69,1687677655.703125
-1.72,1687677655.71875
13.22,1687677655.734375
27.45,1687677655.75
39.47,1687677655.765625
49.21,1687677655.78125
57.37,1687677655.796875
64.61,1687677655.8125
70.56,1687677655.828125
73.42,1687677655.84375
70.51,1687677655.859375
59.64,1687677655.875
40.54,1687677655.890625
15.76,1687677655.90625
-9.61,1687677655.921875
-29.66,1687677655.9375
-39.78,1687677655.953125
-38.38,1687677655.96875
-27.07,1687677655.984375
-9.76,1687677656.0
8.83,1687677656.015625
24.36,1687677656.03125
33.58,1687677656.046875
34.57,1687677656.0625
26.94,1687677656.078125
12.15,1687677656.09375
-6.72,1687677656.109375
-25.68,1687677656.125
-41.08,1687677656.140625
-50.74,1687677656.15625
-54.44,1687677656.171875
-53.38,1687677656.1875
-49.16,1687677656.203125
-43.28,1687677656.21875
-37.24,1687677656.234375
-33.07,1687677656.25
-33.36,1687677656.265625
-40.20,1687677656.28125
-53.94,1687677656.296875
-72.07,1687677656.3125
-89.70,1687677656.328125
-101.20,1687677656.34375
-102.48,1687677656.359375
-92.54,1687677656.375
-73.88,1687677656.390625
-51.54,1687677656.40625
-31.28,1687677656.421875
-17.53,1687677656.4375
-11.62,1687677656.453125
-11.02,1687677656.46875
-9.86,1687677656.484375
-1.04,1687677656.5
20.93,1687677656.515625
57.19,1687677656.53125
103.55,1687677656.546875
151.73,1687677656.5625
192.30,1687677656.578125
218.25,1687677656.59375
227.07,1687677656.609375
220.79,1687677656.625
204.27,1687677656.640625
182.92,1687677656.65625
161.09,1687677656.671875
141.41,1687677656.6875
125.20,1687677656.703125
112.79,1687677656.71875
103.83,1687677656.734375
97.31,1687677656.75
91.38,1687677656.765625
83.80,1687677656.78125
72.39,1687677656.796875
55.93,1687677656.8125
34.67,1687677656.828125
10.46,1687677656.84375
-13.57,1687677656.859375
-33.94,1687677656.875
-47.86,1687677656.890625
-54.21,1687677656.90625
-54.11,1687677656.921875
-50.87,1687677656.9375
-49.06,1687677656.953125
-52.92,1687677656.96875
-64.61,1687677656.984375
-83.12,1687677657.0
-104.51,1687677657.015625
-123.18,1687677657.03125
-134.07,1687677657.046875
-134.28,1687677657.0625
-123.81,1687677657.078125
-105.08,1687677657.09375
-81.79,1687677657.109375
-57.96,1687677657.125
-37.07,1687677657.140625
-21.75,1687677657.15625
-13.34,1687677657.171875
-11.48,1687677657.1875
-13.99,1687677657.203125
-17.19,1687677657.21875
-17.12,1687677657.234375
-10.74,1687677657.25
3.10,1687677657.265625
23.28,1687677657.28125
46.67,1687677657.296875
68.61,1687677657.3125
83.78,1687677657.328125
87.49,1687677657.34375
77.33,1687677657.359375
54.67,1687677657.375
24.98,1687677657.390625
-3.42,1687677657.40625
-22.16,1687677657.421875
-26.30,1687677657.4375
-16.34,1687677657.453125
1.80,1687677657.46875
19.27,1687677657.484375
27.67,1687677657.5
21.78,1687677657.515625
0.19,1687677657.53125
-35.81,1687677657.546875
-83.92,1687677657.5625
-141.42,1687677657.578125
-204.72,1687677657.59375
-268.03,1687677657.609375
-323.22,1687677657.625
-361.26,1687677657.640625
-374.98,1687677657.65625
-361.76,1687677657.671875
-324.54,1687677657.6875
-270.38,1687677657.703125
-207.29,1687677657.71875
-141.45,1687677657.734375
-76.07,1687677657.75
-12.46,1687677657.765625
48.00,1687677657.78125
102.54,1687677657.796875
147.48,1687677657.8125
179.99,1687677657.828125
199.93,1687677657.84375
210.32,1687677657.859375
216.15,1687677657.875
222.19,1687677657.890625
230.84,1687677657.90625
241.23,1687677657.921875
249.41,1687677657.9375
250.29,1687677657.953125
239.92,1687677657.96875
217.39,1687677657.984375
185.45,1687677658.0
149.58,1687677658.015625
115.91,1687677658.03125
89.10,1687677658.046875
70.98,1687677658.0625
60.73,1687677658.078125
56.07,1687677658.09375
54.69,1687677658.109375
55.16,1687677658.125
56.89,1687677658.140625
59.73,1687677658.15625
63.60,1687677658.171875
68.40,1687677658.1875
74.21,1687677658.203125
81.41,1687677658.21875
90.65,1687677658.234375
102.60,1687677658.25
117.82,1687677658.265625
136.59,1687677658.28125
158.69,1687677658.296875
182.81,1687677658.3125
206.10,1687677658.328125
224.34,1687677658.34375
233.03,1687677658.359375
229.12,1687677658.375
212.17,1687677658.390625
184.73,1687677658.40625
150.97,1687677658.421875
114.69,1687677658.4375
77.75,1687677658.453125
40.04,1687677658.46875
1.10,1687677658.484375
-37.92,1687677658.5
-73.13,1687677658.515625
-98.73,1687677658.53125
-109.55,1687677658.546875
-103.65,1687677658.5625
-83.74,1687677658.578125
-56.25,1687677658.59375
-28.79,1687677658.609375
-7.17,1687677658.625
6.30,1687677658.640625
12.68,1687677658.65625
14.77,1687677658.671875
15.12,1687677658.6875
14.81,1687677658.703125
13.46,1687677658.71875
10.20,1687677658.734375
4.59,1687677658.75
-2.93,1687677658.765625
-11.26,1687677658.78125
-19.35,1687677658.796875
-26.71,1687677658.8125
-33.62,1687677658.828125
-40.89,1687677658.84375
-49.32,1687677658.859375
-59.16,1687677658.875
-70.03,1687677658.890625
-81.05,1687677658.90625
-91.36,1687677658.921875
-100.63,1687677658.9375
-109.18,1687677658.953125
-117.85,1687677658.96875
-127.43,1687677658.984375
-138.16,1687677659.0
-149.64,1687677659.015625
-160.99,1687677659.03125
-171.47,1687677659.046875
-180.91,1687677659.0625
-189.90,1687677659.078125
-199.41,1687677659.09375
-210.28,1687677659.109375
-222.67,1687677659.125
-235.90,1687677659.140625
-248.68,1687677659.15625
-259.71,1687677659.171875
-268.23,1687677659.1875
-274.19,1687677659.203125
-278.05,1687677659.21875
-280.28,1687677659.234375
-280.87,1687677659.25
-279.08,1687677659.265625
-273.54,1687677659.28125
-262.70,1687677659.296875
-245.36,1687677659.3125
-221.27,1687677659.328125
-191.45,1687677659.34375
-158.22,1687677659.359375
-125.00,1687677659.375
-95.57,1687677659.390625
-73.26,1687677659.40625
-59.96,1687677659.421875
-55.47,1687677659.4375
-57.30,1687677659.453125
-61.39,1687677659.46875
-63.39,1687677659.484375
-60.16,1687677659.5
-50.93,1687677659.515625
-37.50,1687677659.53125
-23.31,1687677659.546875
-11.87,1687677659.5625
-5.13,1687677659.578125
-2.78,1687677659.59375
-2.63,1687677659.609375
-2.22,1687677659.625
-0.42,1687677659.640625
1.84,1687677659.65625
2.21,1687677659.671875
-1.47,1687677659.6875
-9.64,1687677659.703125
-20.18,1687677659.71875
-29.31,1687677659.734375
-33.21,1687677659.75
-29.90,1687677659.765625
-20.13,1687677659.78125
-6.96,1687677659.796875
5.86,1687677659.8125
15.67,1687677659.828125
22.13,1687677659.84375
27.10,1687677659.859375
33.36,1687677659.875
43.03,1687677659.890625
56.44,1687677659.90625
72.05,1687677659.921875
87.38,1687677659.9375
100.47,1687677659.953125
110.82,1687677659.96875
119.22,1687677659.984375
126.87,1687677660.0
134.00,1687677660.015625
139.32,1687677660.03125
140.61,1687677660.046875
136.01,1687677660.0625
125.28,1687677660.078125
110.04,1687677660.09375
92.83,1687677660.109375
75.90,1687677660.125
60.28,1687677660.140625
45.93,1687677660.15625
32.63,1687677660.171875
20.92,1687677660.1875
12.21,1687677660.203125
8.21,1687677660.21875
9.81,1687677660.234375
16.40,1687677660.25
26.11,1687677660.265625
36.78,1687677660.28125
47.17,1687677660.296875
57.42,1687677660.3125
68.66,1687677660.328125
81.70,1687677660.34375
95.93,1687677660.359375
108.84,1687677660.375
116.62,1687677660.390625
115.58,1687677660.40625
103.43,1687677660.421875
80.14,1687677660.4375
47.89,1687677660.453125
10.50,1687677660.46875
-27.34,1687677660.484375
-60.71,1687677660.5
-84.84,1687677660.515625
-95.65,1687677660.53125
-90.48,1687677660.546875
-69.13,1687677660.5625
-34.54,1687677660.578125
7.47,1687677660.59375
49.53,1687677660.609375
84.97,1687677660.625
109.86,1687677660.640625
124.01,1687677660.65625
130.48,1687677660.671875
133.64,1687677660.6875
136.96,1687677660.703125
141.38,1687677660.71875
145.04,1687677660.734375
144.44,1687677660.75
136.42,1687677660.765625
119.74,1687677660.78125
95.76,1687677660.796875
67.59,1687677660.8125
38.69,1687677660.828125
11.47,1687677660.84375
-13.21,1687677660.859375
-35.58,1687677660.875
-55.92,1687677660.890625
-73.85,1687677660.90625
-88.26,1687677660.921875
-98.14,1687677660.9375
-103.54,1687677660.953125
-106.16,1687677660.96875
-108.87,1687677660.984375
-114.56,1687677661.0
-124.68,1687677661.015625
-138.38,1687677661.03125
-152.89,1687677661.046875
-164.66,1687677661.0625
-171.09,1687677661.078125
-171.46,1687677661.09375
-166.98,1687677661.109375
-159.91,1687677661.125
-152.23,1687677661.140625
-144.76,1687677661.15625
-137.02,1687677661.171875
-127.86,1687677661.1875
-116.09,1687677661.203125
-101.12,1687677661.21875
-82.92,1687677661.234375
-61.92,1687677661.25
-38.68,1687677661.265625
-13.95,1687677661.28125
11.22,1687677661.296875
35.30,1687677661.3125
56.59,1687677661.328125
73.72,1687677661.34375
86.24,1687677661.359375
94.91,1687677661.375
101.15,1687677661.390625
106.45,1687677661.40625
111.50,1687677661.421875
115.73,1687677661.4375
117.72,1687677661.453125
116.27,1687677661.46875
111.71,1687677661.484375
106.21,1687677661.5
103.16,1687677661.515625
105.17,1687677661.53125
112.59,1687677661.546875
123.04,1687677661.5625
132.24,1687677661.578125
136.04,1687677661.59375
132.32,1687677661.609375
121.76,1687677661.625
106.94,1687677661.640625
90.68,1687677661.65625
74.09,1687677661.671875
56.74,1687677661.6875
37.69,1687677661.703125
16.96,1687677661.71875
-3.77,1687677661.734375
-21.84,1687677661.75
-35.09,1687677661.765625
-43.21,1687677661.78125
-46.17,1687677661.796875
-45.31,1687677661.8125
-42.06,1687677661.828125
-37.22,1687677661.84375
-30.98,1687677661.859375
-23.66,1687677661.875
-16.13,1687677661.890625
-9.77,1687677661.90625
-6.27,1687677661.921875
-5.51,1687677661.9375
-7.01,1687677661.953125
-9.96,1687677661.96875
-13.69,1687677661.984375
-17.91,1687677662.0
-22.72,1687677662.015625
-28.24,1687677662.03125
-33.60,1687677662.046875
-37.53,1687677662.0625
-38.26,1687677662.078125
-34.63,1687677662.09375
-26.73,1687677662.109375
-16.55,1687677662.125
-7.85,1687677662.140625
-4.92,1687677662.15625
-10.92,1687677662.171875
-26.44,1687677662.1875
-49.30,1687677662.203125
-75.34,1687677662.21875
-100.51,1687677662.234375
-122.08,1687677662.25
-139.21,1687677662.265625
-152.28,1687677662.28125
-161.72,1687677662.296875
-167.01,1687677662.3125
-166.56,1687677662.328125
-158.83,1687677662.34375
-143.47,1687677662.359375
-122.38,1687677662.375
-99.22,1687677662.390625
-77.94,1687677662.40625
-60.97,1687677662.421875
-47.93,1687677662.4375
-35.75,1687677662.453125
-20.09,1687677662.46875
2.50,1687677662.484375
33.02,1687677662.5
69.49,1687677662.515625
107.74,1687677662.53125
143.16,1687677662.546875
172.10,1687677662.5625
192.91,1687677662.578125
205.87,1687677662.59375
212.62,1687677662.609375
215.20,1687677662.625
215.40,1687677662.640625
214.25,1687677662.65625
211.88,1687677662.671875
207.88,1687677662.6875
201.75,1687677662.703125
193.47,1687677662.71875
183.63,1687677662.734375
173.12,1687677662.75
162.61,1687677662.765625
152.09,1687677662.78125
140.94,1687677662.796875
128.40,1687677662.8125
114.29,1687677662.828125
99.31,1687677662.84375
84.85,1687677662.859375
72.36,1687677662.875
62.69,1687677662.890625
55.95,1687677662.90625
51.84,1687677662.921875
50.15,1687677662.9375
50.99,1687677662.953125
54.60,1687677662.96875
60.79,1687677662.984375
68.51,1687677663.0
75.95,1687677663.015625
81.17,1687677663.03125
82.92,1687677663.046875
81.10,1687677663.0625
76.62,1687677663.078125
70.85,1687677663.09375
64.89,1687677663.109375
59.25,1687677663.125
53.91,1687677663.140625
48.68,1687677663.15625
43.45,1687677663.171875
38.34,1687677663.1875
33.46,1687677663.203125
28.76,1687677663.21875
23.96,1687677663.234375
18.71,1687677663.25
12.77,1687677663.265625
6.22,1687677663.28125
-0.64,1687677663.296875
-7.46,1687677663.3125
-14.00,1687677663.328125
-20.33,1687677663.34375
-26.63,1687677663.359375
-33.15,1687677663.375
-40.00,1687677663.390625
-47.16,1687677663.40625
-54.49,1687677663.421875
-61.87,1687677663.4375
-69.20,1687677663.453125
-76.42,1687677663.46875
-83.48,1687677663.484375
-90.13,1687677663.5
-96.00,1687677663.515625
-100.52,1687677663.53125
-103.13,1687677663.546875
-103.43,1687677663.5625
-101.33,1687677663.578125
-97.09,1687677663.59375
-91.22,1687677663.609375
-84.35,1687677663.625
-77.08,1687677663.640625
-69.89,1687677663.65625
-63.13,1687677663.671875
-57.02,1687677663.6875
-51.76,1687677663.703125
-47.48,1687677663.71875
-44.26,1687677663.734375
-42.07,1687677663.75
-40.75,1687677663.765625
-40.03,1687677663.78125
-39.55,1687677663.796875
-38.94,1687677663.8125
-37.91,1687677663.828125
-36.32,1687677663.84375
-34.25,1687677663.859375
-31.93,1687677663.875
-29.69,1687677663.890625
-27.89,1687677663.90625
-26.77,1687677663.921875
-26.40,1687677663.9375
-26.70,1687677663.953125
-27.51,1687677663.96875
-28.67,1687677663.984375
-30.08,1687677664.0
-31.77,1687677664.015625
-33.83,1687677664.03125
-36.35,1687677664.046875
-39.35,1687677664.0625
-42.84,1687677664.078125
-46.80,1687677664.09375
-51.20,1687677664.109375
-55.82,1687677664.125
-60.14,1687677664.140625
-63.27,1687677664.15625
-64.09,1687677664.171875
-61.66,1687677664.1875
-55.69,1687677664.203125
-46.70,1687677664.21875
-35.98,1687677664.234375
-25.11,1687677664.25
-15.42,1687677664.265625
-7.58,1687677664.28125
-1.59,1687677664.296875
2.94,1687677664.3125
6.40,1687677664.328125
8.93,1687677664.34375
10.48,1687677664.359375
10.92,1687677664.375
10.36,1687677664.390625
9.16,1687677664.40625
7.81,1687677664.421875
6.66,1687677664.4375
5.84,1687677664.453125
5.21,1687677664.46875
4.54,1687677664.484375
3.70,1687677664.5
2.72,1687677664.515625
1.80,1687677664.53125
1.09,1687677664.546875
0.55,1687677664.5625
-0.02,1687677664.578125
-0.97,1687677664.59375
-2.51,1687677664.609375
-4.65,1687677664.625
-7.19,1687677664.640625
-9.78,1687677664.65625
-12.20,1687677664.671875
-14.40,1687677664.6875
-16.55,1687677664.703125
-18.96,1687677664.71875
-21.93,1687677664.734375
-25.71,1687677664.75
-30.30,1687677664.765625
-35.48,1687677664.78125
-40.60,1687677664.796875
-44.69,1687677664.8125
-46.60,1687677664.828125
-45.39,1687677664.84375
-40.69,1687677664.859375
-32.91,1687677664.875
-23.22,1687677664.890625
-13.05,1687677664.90625
-3.68,1687677664.921875
4.17,1687677664.9375
10.36,1687677664.953125
15.16,1687677664.96875
18.85,1687677664.984375
21.58,1687677665.0
23.28,1687677665.015625
23.88,1687677665.03125
23.46,1687677665.046875
22.31,1687677665.0625
20.78,1687677665.078125
19.26,1687677665.09375
17.90,1687677665.109375
16.71,1687677665.125
15.50,1687677665.140625
14.12,1687677665.15625
12.50,1687677665.171875
10.68,1687677665.1875
8.68,1687677665.203125
6.49,1687677665.21875
3.98,1687677665.234375
1.01,1687677665.25
-2.49,1687677665.265625
-6.49,1687677665.28125
-10.78,1687677665.296875
-15.10,1687677665.3125
-19.25,1687677665.328125
-23.30,1687677665.34375
-27.47,1687677665.359375
-32.08,1687677665.375
-37.30,1687677665.390625
-43.12,1687677665.40625
-49.40,1687677665.421875
-55.81,1687677665.4375
-61.85,1687677665.453125
-66.90,1687677665.46875
-70.34,1687677665.484375
-71.65,1687677665.5
-70.58,1687677665.515625
-67.18,1687677665.53125
-61.86,1687677665.546875
-55.65,1687677665.5625
-49.52,1687677665.578125
-44.08,1687677665.59375
-39.65,1687677665.609375
-36.44,1687677665.625
-34.76,1687677665.640625
-34.94,1687677665.65625
-37.16,1687677665.671875
-41.15,1687677665.6875
-47.06,1687677665.703125
-54.44,1687677665.71875
-62.51,1687677665.734375
-70.46,1687677665.75
-78.05,1687677665.765625
-85.72,1687677665.78125
-94.23,1687677665.796875
-104.09,1687677665.8125
-115.06,1687677665.828125
-127.22,1687677665.84375
-139.31,1687677665.859375
-148.71,1687677665.875
-152.42,1687677665.890625
-148.54,1687677665.90625
-137.37,1687677665.921875
-121.56,1687677665.9375
-105.15,1687677665.953125
-91.98,1687677665.96875
-85.92,1687677665.984375
-87.64,1687677666.0
-94.41,1687677666.015625
-101.49,1687677666.03125
-104.71,1687677666.046875
-102.31,1687677666.0625
-95.31,1687677666.078125
-86.37,1687677666.09375
-67.75,1687677666.109375
-37.14,1687677666.125
2.66,1687677666.140625
45.35,1687677666.15625
84.91,1687677666.171875
117.89,1687677666.1875
142.81,1687677666.203125
158.83,1687677666.21875
165.42,1687677666.234375
162.41,1687677666.25
150.64,1687677666.265625
132.47,1687677666.28125
111.59,1687677666.296875
91.73,1687677666.3125
75.03,1687677666.328125
61.17,1687677666.34375
47.94,1687677666.359375
32.74,1687677666.375
14.46,1687677666.390625
-7.63,1687677666.40625
-32.12,1687677666.421875
-55.45,1687677666.4375
-73.03,1687677666.453125
-80.68,1687677666.46875
-75.95,1687677666.484375
-58.81,1687677666.5
-31.77,1687677666.515625
0.49,1687677666.53125
31.44,1687677666.546875
55.47,1687677666.5625
69.77,1687677666.578125
74.99,1687677666.59375
74.40,1687677666.609375
71.98,1687677666.625
70.73,1687677666.640625
71.73,1687677666.65625
74.33,1687677666.671875
76.74,1687677666.6875
77.58,1687677666.703125
76.71,1687677666.71875
75.02,1687677666.734375
73.79,1687677666.75
74.01,1687677666.765625
76.28,1687677666.78125
80.85,1687677666.796875
87.82,1687677666.8125
97.00,1687677666.828125
107.89,1687677666.84375
119.75,1687677666.859375
131.58,1687677666.875
142.35,1687677666.890625
151.31,1687677666.90625
158.11,1687677666.921875
162.88,1687677666.9375
165.96,1687677666.953125
167.64,1687677666.96875
167.91,1687677666.984375
166.39,1687677667.0
162.47,1687677667.015625
155.60,1687677667.03125
145.56,1687677667.046875
132.56,1687677667.0625
117.16,1687677667.078125
100.01,1687677667.09375
81.59,1687677667.109375
62.26,1687677667.125
42.31,1687677667.140625
22.27,1687677667.15625
2.89,1687677667.171875
-14.87,1687677667.1875
-30.12,1687677667.203125
-42.12,1687677667.21875
-50.49,1687677667.234375
-55.12,1687677667.25
-56.13,1687677667.265625
-53.85,1687677667.28125
-48.72,1687677667.296875
-41.27,1687677667.3125
-31.91,1687677667.328125
-20.89,1687677667.34375
-8.36,1687677667.359375
5.48,1687677667.375
20.14,1687677667.390625
34.75,1687677667.40625
48.17,1687677667.421875
59.29,1687677667.4375
67.30,1687677667.453125
71.69,1687677667.46875
72.25,1687677667.484375
68.86,1687677667.5
61.77,1687677667.515625
51.85,1687677667.53125
40.92,1687677667.546875
31.42,1687677667.5625
25.74,1687677667.578125
25.11,1687677667.59375
28.79,1687677667.609375
34.15,1687677667.625
37.65,1687677667.640625
36.44,1687677667.65625
29.60,1687677667.671875
18.49,1687677667.6875
6.02,1687677667.703125
-4.72,1687677667.71875
-11.72,1687677667.734375
-14.64,1687677667.75
-14.53,1687677667.765625
-13.09,1687677667.78125
-11.85,1687677667.796875
-11.77,1687677667.8125
-13.24,1687677667.828125
-16.31,1687677667.84375
-20.90,1687677667.859375
-26.91,1687677667.875
-34.05,1687677667.890625
-41.77,1687677667.90625
-49.18,1687677667.921875
-55.44,1687677667.9375
-60.05,1687677667.953125
-63.26,1687677667.96875
-65.98,1687677667.984375
-69.38,1687677668.0
-74.09,1687677668.015625
-79.61,1687677668.03125
-84.08,1687677668.046875
-84.84,1687677668.0625
-79.41,1687677668.078125
-66.56,1687677668.09375
-46.87,1687677668.109375
-22.59,1687677668.125
3.07,1687677668.140625
26.74,1687677668.15625
45.65,1687677668.171875
57.92,1687677668.1875
62.65,1687677668.203125
59.96,1687677668.21875
51.04,1687677668.234375
38.07,1687677668.25
23.80,1687677668.265625
10.91,1687677668.28125
1.21,1687677668.296875
-4.89,1687677668.3125
-8.24,1687677668.328125
-10.41,1687677668.34375
-12.76,1687677668.359375
-15.92,1687677668.375
-19.63,1687677668.390625
-23.15,1687677668.40625
-25.82,1687677668.421875
-27.40,1687677668.4375
-28.09,1687677668.453125
-28.27,1687677668.46875
-28.25,1687677668.484375
-28.16,1687677668.5
-28.07,1687677668.515625
-28.16,1687677668.53125
-28.81,1687677668.546875
-30.58,1687677668.5625
-33.92,1687677668.578125
-38.99,1687677668.59375
-45.40,1687677668.609375
-52.23,1687677668.625
-58.22,1687677668.640625
-62.01,1687677668.65625
-62.58,1687677668.671875
-59.51,1687677668.6875
-53.09,1687677668.703125
-44.18,1687677668.71875
-33.95,1687677668.734375
-23.50,1687677668.75
-13.62,1687677668.765625
-4.75,1687677668.78125
2.97,1687677668.796875
9.41,1687677668.8125
14.49,1687677668.828125
18.06,1687677668.84375
20.08,1687677668.859375
20.65,1687677668.875
20.06,1687677668.890625
18.71,1687677668.90625
17.01,1687677668.921875
15.36,1687677668.9375
13.95,1687677668.953125
12.83,1687677668.96875
11.90,1687677668.984375
10.97,1687677669.0
9.84,1687677669.015625
8.34,1687677669.03125
6.35,1687677669.046875
3.82,1687677669.0625
0.80,1687677669.078125
-2.60,1687677669.09375
-6.27,1687677669.109375
-10.04,1687677669.125
-13.87,1687677669.140625
-17.79,1687677669.15625
-22.00,1687677669.171875
-26.79,1687677669.1875
-32.36,1687677669.203125
-38.69,1687677669.21875
-45.39,1687677669.234375
-51.68,1687677669.25
-56.51,1687677669.265625
-58.83,1687677669.28125
-57.90,1687677669.296875
-53.49,1687677669.3125
-45.95,1687677669.328125
-36.14,1687677669.34375
-25.16,1687677669.359375
-14.13,1687677669.375
-3.92,1687677669.390625
4.95,1687677669.40625
12.29,1687677669.421875
18.17,1687677669.4375
22.75,1687677669.453125
26.18,1687677669.46875
28.51,1687677669.484375
29.78,1687677669.5
30.10,1687677669.515625
29.68,1687677669.53125
28.86,1687677669.546875
28.02,1687677669.5625
27.40,1687677669.578125
27.05,1687677669.59375
26.80,1687677669.609375
26.37,1687677669.625
25.50,1687677669.640625
24.13,1687677669.65625
22.31,1687677669.671875
20.17,1687677669.6875
17.82,1687677669.703125
15.27,1687677669.71875
12.48,1687677669.734375
9.42,1687677669.75
6.09,1687677669.765625
2.46,1687677669.78125
-1.57,1687677669.796875
-6.21,1687677669.8125
-11.73,1687677669.828125
-18.23,1687677669.84375
-25.44,1687677669.859375
-32.62,1687677669.875
-38.63,1687677669.890625
-42.24,1687677669.90625
-42.47,1687677669.921875
-38.94,1687677669.9375
-32.00,1687677669.953125
-22.56,1687677669.96875
-11.84,1687677669.984375
-1.00,1687677670.0
9.03,1687677670.015625
17.65,1687677670.03125
24.49,1687677670.046875
29.41,1687677670.0625
32.37,1687677670.078125
33.46,1687677670.09375
32.98,1687677670.109375
31.35,1687677670.125
29.15,1687677670.140625
26.99,1687677670.15625
25.39,1687677670.171875
24.62,1687677670.1875
24.69,1687677670.203125
25.28,1687677670.21875
25.89,1687677670.234375
25.92,1687677670.25
24.91,1687677670.265625
22.69,1687677670.28125
19.44,1687677670.296875
15.62,1687677670.3125
11.81,1687677670.328125
8.49,1687677670.34375
5.89,1687677670.359375
3.87,1687677670.375
2.03,1687677670.390625
-0.14,1687677670.40625
-3.12,1687677670.421875
-7.14,1687677670.4375
-12.11,1687677670.453125
-17.58,1687677670.46875
-22.71,1687677670.484375
-26.52,1687677670.5
-28.04,1687677670.515625
-26.58,1687677670.53125
-21.97,1687677670.546875
-14.66,1687677670.5625
-5.60,1687677670.578125
4.00,1687677670.59375
13.00,1687677670.609375
20.53,1687677670.625
26.24,1687677670.640625
30.14,1687677670.65625
32.51,1687677670.671875
33.66,1687677670.6875
33.87,1687677670.703125
33.35,1687677670.71875
32.25,1687677670.734375
30.74,1687677670.75
29.01,1687677670.765625
27.28,1687677670.78125
25.71,1687677670.796875
24.37,1687677670.8125
23.22,1687677670.828125
22.13,1687677670.84375
20.88,1687677670.859375
19.33,1687677670.875
17.36,1687677670.890625
15.00,1687677670.90625
12.39,1687677670.921875
9.69,1687677670.9375
7.00,1687677670.953125
4.31,1687677670.96875
1.51,1687677670.984375
-1.57,1687677671.0
-5.06,1687677671.015625
-9.06,1687677671.03125
-13.57,1687677671.046875
-18.53,1687677671.0625
-23.78,1687677671.078125
-28.86,1687677671.09375
-33.09,1687677671.109375
-35.60,1687677671.125
-35.60,1687677671.140625
-32.68,1687677671.15625
-27.01,1687677671.171875
-19.34,1687677671.1875
-10.71,1687677671.203125
-2.14,1687677671.21875
5.65,1687677671.234375
12.29,1687677671.25
17.70,1687677671.265625
21.85,1687677671.28125
24.74,1687677671.296875
26.33,1687677671.3125
26.73,1687677671.328125
26.17,1687677671.34375
24.98,1687677671.359375
23.56,1687677671.375
22.20,1687677671.390625
21.08,1687677671.40625
20.18,1687677671.421875
19.42,1687677671.4375
18.67,1687677671.453125
17.76,1687677671.46875
16.57,1687677671.484375
15.01,1687677671.5
13.07,1687677671.515625
10.84,1687677671.53125
8.42,1687677671.546875
5.90,1687677671.5625
3.31,1687677671.578125
0.60,1687677671.59375
-2.34,1687677671.609375
-5.49,1687677671.625
-8.83,1687677671.640625
-12.30,1687677671.65625
-15.87,1687677671.671875
-19.62,1687677671.6875
-23.64,1687677671.703125
-27.86,1687677671.71875
-31.93,1687677671.734375
-35.15,1687677671.75
-36.63,1687677671.765625
-35.65,1687677671.78125
-31.96,1687677671.796875
-25.95,1687677671.8125
-18.55,1687677671.828125
-10.87,1687677671.84375
-3.86,1687677671.859375
1.98,1687677671.875
6.56,1687677671.890625
10.04,1687677671.90625
12.52,1687677671.921875
13.97,1687677671.9375
14.30,1687677671.953125
13.45,1687677671.96875
11.64,1687677671.984375
9.34,1687677672.0
7.14,1687677672.015625
5.52,1687677672.03125
4.67,1687677672.046875
4.43,1687677672.0625
4.46,1687677672.078125
4.32,1687677672.09375
3.77,1687677672.109375
2.76,1687677672.125
1.43,1687677672.140625
-0.07,1687677672.15625
-1.64,1687677672.171875
-3.27,1687677672.1875
-5.03,1687677672.203125
-7.01,1687677672.21875
-9.20,1687677672.234375
-11.62,1687677672.25
-14.30,1687677672.265625
-17.40,1687677672.28125
-21.10,1687677672.296875
-25.43,1687677672.3125
-30.10,1687677672.328125
-34.43,1687677672.34375
-37.54,1687677672.359375
-38.58,1687677672.375
-37.14,1687677672.390625
-33.32,1687677672.40625
-27.68,1687677672.421875
-21.02,1687677672.4375
-14.09,1687677672.453125
-7.41,1687677672.46875
-1.36,1687677672.484375
3.81,1687677672.5
7.88,1687677672.515625
10.65,1687677672.53125
11.99,1687677672.546875
11.93,1687677672.5625
10.74,1687677672.578125
8.86,1687677672.59375
6.82,1687677672.609375
5.08,1687677672.625
3.91,1687677672.640625
3.29,1687677672.65625
2.98,1687677672.671875
2.64,1687677672.6875
1.95,1687677672.703125
0.82,1687677672.71875
-0.69,1687677672.734375
-2.40,1687677672.75
-4.13,1687677672.765625
-5.79,1687677672.78125
-7.44,1687677672.796875
-9.20,1687677672.8125
-11.28,1687677672.828125
-13.84,1687677672.84375
-17.06,1687677672.859375
-21.01,1687677672.875
-25.59,1687677672.890625
-30.50,1687677672.90625
-35.19,1687677672.921875
-38.97,1687677672.9375
-41.17,1687677672.953125
-41.30,1687677672.96875
-39.17,1687677672.984375
-34.94,1687677673.0
-29.03,1687677673.015625
-22.02,1687677673.03125
-14.60,1687677673.046875
-7.49,1687677673.0625
-1.35,1687677673.078125
3.23,1687677673.09375
5.89,1687677673.109375
6.53,1687677673.125
5.43,1687677673.140625
3.19,1687677673.15625
0.57,1687677673.171875
-1.68,1687677673.1875
-3.02,1687677673.203125
-3.31,1687677673.21875
-2.76,1687677673.234375
-1.92,1687677673.25
-1.43,1687677673.265625
-1.82,1687677673.28125
-3.36,1687677673.296875
-5.98,1687677673.3125
-9.36,1687677673.328125
-13.07,1687677673.34375
-16.82,1687677673.359375
-20.53,1687677673.375
-24.42,1687677673.390625
-28.84,1687677673.40625
-34.08,1687677673.421875
-40.19,1687677673.4375
-46.83,1687677673.453125
-53.28,1687677673.46875
-58.56,1687677673.484375
-61.72,1687677673.5
-62.04,1687677673.515625
-59.29,1687677673.53125
-53.70,1687677673.546875
-45.93,1687677673.5625
-36.84,1687677673.578125
-27.26,1687677673.59375
-17.85,1687677673.609375
-9.03,1687677673.625
-1.04,1687677673.640625
5.95,1687677673.65625
11.73,1687677673.671875
16.06,1687677673.6875
18.76,1687677673.703125
19.78,1687677673.71875
19.32,1687677673.734375
17.81,1687677673.75
15.77,1687677673.765625
13.67,1687677673.78125
11.78,1687677673.796875
10.08,1687677673.8125
8.31,1687677673.828125
6.13,1687677673.84375
3.32,1687677673.859375
-0.17,1687677673.875
-4.14,1687677673.890625
-8.29,1687677673.90625
-12.35,1687677673.921875
-16.19,1687677673.9375
-19.95,1687677673.953125
-23.97,1687677673.96875
-28.69,1687677673.984375
-34.44,1687677674.0
-41.27,1687677674.015625
-48.77,1687677674.03125
-56.08,1687677674.046875
-62.00,1687677674.0625
-65.29,1687677674.078125
-64.97,1687677674.09375
-60.64,1687677674.109375
-52.59,1687677674.125
-41.75,1687677674.140625
-29.43,1687677674.15625
-16.96,1687677674.171875
-5.37,1687677674.1875
4.80,1687677674.203125
13.46,1687677674.21875
20.80,1687677674.234375
27.10,1687677674.25
32.54,1687677674.265625
37.13,1687677674.28125
40.78,1687677674.296875
43.43,1687677674.3125
45.12,1687677674.328125
46.03,1687677674.34375
46.48,1687677674.359375
46.73,1687677674.375
46.90,1687677674.390625
46.87,1687677674.40625
46.30,1687677674.421875
44.83,1687677674.4375
42.15,1687677674.453125
38.26,1687677674.46875
33.35,1687677674.484375
27.74,1687677674.5
21.73,1687677674.515625
15.47,1687677674.53125
8.97,1687677674.546875
2.20,1687677674.5625
-4.89,1687677674.578125
-12.37,1687677674.59375
-20.37,1687677674.609375
-29.07,1687677674.625
-38.53,1687677674.640625
-48.42,1687677674.65625
-57.85,1687677674.671875
-65.36,1687677674.6875
-69.26,1687677674.703125
-68.17,1687677674.71875
-61.57,1687677674.734375
-50.01,1687677674.75
-34.94,1687677674.765625
-18.25,1687677674.78125
-1.67,1687677674.796875
13.65,1687677674.8125
27.18,1687677674.828125
38.89,1687677674.84375
48.88,1687677674.859375
57.18,1687677674.875
63.71,1687677674.890625
68.43,1687677674.90625
71.46,1687677674.921875
73.20,1687677674.9375
74.19,1687677674.953125
74.85,1687677674.96875
75.40,1687677674.984375
75.70,1687677675.0
75.50,1687677675.015625
74.59,1687677675.03125
73.03,1687677675.046875
71.12,1687677675.0625
69.21,1687677675.078125
67.53,1687677675.09375
65.90,1687677675.109375
63.94,1687677675.125
61.11,1687677675.140625
57.06,1687677675.15625
51.80,1687677675.171875
45.64,1687677675.1875
39.06,1687677675.203125
32.56,1687677675.21875
26.44,1687677675.234375
20.76,1687677675.25
15.36,1687677675.265625
9.88,1687677675.28125
3.85,1687677675.296875
-3.10,1687677675.3125
-11.14,1687677675.328125
-20.00,1687677675.34375
-28.85,1687677675.359375
-36.40,1687677675.375
-41.17,1687677675.390625
-41.95,1687677675.40625
-38.20,1687677675.421875
-30.25,1687677675.4375
-19.19,1687677675.453125
-6.50,1687677675.46875
6.38,1687677675.484375
18.45,1687677675.5
29.14,1687677675.515625
38.24,1687677675.53125
45.72,1687677675.546875
51.49,1687677675.5625
55.53,1687677675.578125
57.88,1687677675.59375
58.72,1687677675.609375
58.43,1687677675.625
57.49,1687677675.640625
56.36,1687677675.65625
55.36,1687677675.671875
54.63,1687677675.6875
54.11,1687677675.703125
53.61,1687677675.71875
52.89,1687677675.734375
51.78,1687677675.75
50.20,1687677675.765625
48.21,1687677675.78125
45.99,1687677675.796875
43.71,1687677675.8125
41.47,1687677675.828125
39.17,1687677675.84375
36.62,1687677675.859375
33.57,1687677675.875
29.93,1687677675.890625
25.79,1687677675.90625
21.45,1687677675.921875
17.26,1687677675.9375
13.53,1687677675.953125
10.35,1687677675.96875
7.63,1687677675.984375
5.10,1687677676.0
2.42,1687677676.015625
-0.74,1687677676.03125
-4.61,1687677676.046875
-9.21,1687677676.0625
-14.22,1687677676.078125
-18.95,1687677676.09375
-22.36,1687677676.109375
-23.37,1687677676.125
-21.18,1687677676.140625
-15.64,1687677676.15625
-7.37,1687677676.171875
2.40,1687677676.1875
12.23,1687677676.203125
21.01,1687677676.21875
28.23,1687677676.234375
34.15,1687677676.25
39.40,1687677676.265625
44.72,1687677676.28125
50.43,1687677676.296875
56.34,1687677676.3125
61.89,1687677676.328125
66.44,1687677676.34375
69.69,1687677676.359375
71.92,1687677676.375
73.90,1687677676.390625
76.59,1687677676.40625
80.83,1687677676.421875
86.89,1687677676.4375
94.39,1687677676.453125
102.22,1687677676.46875
108.75,1687677676.484375
112.08,1687677676.5
110.59,1687677676.515625
103.76,1687677676.53125
92.81,1687677676.546875
80.93,1687677676.5625
72.52,1687677676.578125
71.66,1687677676.59375
80.21,1687677676.609375
96.46,1687677676.625
115.10,1687677676.640625
128.69,1687677676.65625
130.03,1687677676.671875
114.67,1687677676.6875
82.34,1687677676.703125
36.99,1687677676.71875
-14.61,1687677676.734375
-64.93,1687677676.75
-107.59,1687677676.765625
-138.51,1687677676.78125
-156.27,1687677676.796875
-161.72,1687677676.8125
-157.34,1687677676.828125
-146.64,1687677676.84375
-133.43,1687677676.859375
-121.08,1687677676.875
-111.62,1687677676.890625
-105.31,1687677676.90625
-100.60,1687677676.921875
-95.13,1687677676.9375
-87.01,1687677676.953125
-75.96,1687677676.96875
-63.53,1687677676.984375
-52.27,1687677677.0
-44.37,1687677677.015625
-40.53,1687677677.03125
-39.86,1687677677.046875
-40.63,1687677677.0625
-41.48,1687677677.078125
-42.08,1687677677.09375
-42.93,1687677677.109375
-44.60,1687677677.125
-47.06,1687677677.140625
-49.56,1687677677.15625
-51.20,1687677677.171875
-51.52,1687677677.1875
-50.81,1687677677.203125
-49.69,1687677677.21875
-48.58,1687677677.234375
-47.23,1687677677.25
-44.89,1687677677.265625
-40.86,1687677677.28125
-35.20,1687677677.296875
-28.93,1687677677.3125
-23.73,1687677677.328125
-21.15,1687677677.34375
-21.93,1687677677.359375
-25.58,1687677677.375
-30.68,1687677677.390625
-35.61,1687677677.40625
-39.21,1687677677.421875
-41.20,1687677677.4375
-42.01,1687677677.453125
-42.29,1687677677.46875
